time,distance(meters),speed(m/s), compass_heading(degrees), pitch(degrees), roll(degrees),height_above_takeoff(meters),North,East,Down
0.0,134.891,1.75308,243.7,-7.8,-21.0,17.0,0.0,0.0,0.0
0.09999999999999432,134.876,2.06359,243.8,-7.8,-22.2,17.0,-0.15674688244315918,0.08560278479183914,1.8850183358676276e-09
0.20000000000001705,134.857,2.34672,244.0,-7.7,-23.1,17.0,-0.3473824759516455,0.19126024503733394,1.235102006780231e-08
0.30000000000001137,134.835,2.64109,244.1,-7.6,-23.5,17.0,-0.5420056614614934,0.3016984595331867,2.9240758619986096e-08
0.4000000000000057,134.815,2.95156,244.2,-7.7,-23.2,17.0,-0.7939576380937663,0.4359334797335371,6.430427151871143e-08
0.5,134.791,3.23624,244.2,-7.7,-22.2,17.0,-1.0570690893891788,0.579982005503492,1.1378285147412015e-07
0.5999999999999943,134.761,3.47885,244.1,-7.7,-21.1,17.0,-1.356739196084622,0.7476058695004495,1.886452505317493e-07
0.700000000000017,134.733,3.6981,244.2,-8.1,-20.6,17.1,-1.6862468848013008,0.9283882582104866,-0.09999970832436567
0.8000000000000114,134.704,3.89913,244.1,-8.1,-19.8,17.1,-2.0341263524034616,1.1198547804724275,-0.09999957626342282
0.9000000000000057,134.673,4.09118,244.0,-8.1,-19.2,17.1,-2.3788561963940356,1.312665413919194,-0.09999941900554288
1.0,134.639,4.27148,243.9,-8.4,-18.4,17.1,-2.7547412276831014,1.5254772962484298,-0.09999922111719162
1.0999999999999943,134.604,4.41838,243.8,-8.3,-16.9,17.1,-3.1381044354106327,1.7446278767961685,-0.09999898601667234
1.200000000000017,134.569,4.5233,243.6,-8.2,-15.0,17.1,-3.5421048417274013,1.9744778821132845,-0.09999870645535647
1.3000000000000114,134.532,4.56569,243.2,-7.8,-12.0,17.1,-3.9287332294249078,2.1999748209164083,-0.09999840632012291
1.4000000000000057,134.488,4.57911,242.9,-5.5,-7.7,17.1,-4.332282851931056,2.443311751237949,-0.09999805597940248
1.5,134.444,4.53578,242.7,-2.6,-5.2,17.1,-4.712704464414564,2.676835192649114,-0.09999769097808198
1.5999999999999943,134.396,4.43286,242.5,-0.5,-2.5,17.1,-5.11004152350675,2.925372941845943,-0.09999727462584662
1.700000000000017,134.336,4.21495,242.4,-0.4,4.0,17.1,-5.463324400849935,3.166724295189338,-0.09999686461013857
1.8000000000000114,134.264,3.87159,242.2,-1.1,14.6,17.1,-5.802910770711115,3.4171254844692482,-0.09999643678013914
1.9000000000000057,134.191,3.41795,242.1,-1.4,22.7,17.1,-6.078453030205223,3.6364212771021243,-0.09999605678022538
2.0,134.114,2.91525,241.7,-2.3,26.3,17.1,-6.305196449070186,3.837678521560965,-0.09999571784220418
2.0999999999999943,134.036,2.35322,242.6,-0.8,29.2,17.0,-6.495854981826351,4.021966345779623,4.5865281950163705e-06
2.200000000000017,133.948,1.86342,243.0,-0.3,30.1,17.0,-6.652578676958508,4.200404299806823,4.8646876349423e-06
2.3000000000000114,133.858,1.43031,242.9,-0.9,29.7,17.0,-6.746581657128252,4.349775916085842,5.063749624056868e-06
2.4000000000000057,133.741,1.24481,243.4,-0.3,29.0,17.0,-6.8309797468369515,4.525525636849431,5.276216301641767e-06
2.5,133.633,1.18755,243.2,-0.5,26.9,16.9,-6.817375546880762,4.6392477324180375,0.1000053419359439
2.5999999999999943,133.514,1.29048,242.3,-1.6,23.4,16.9,-6.753926627423275,4.740422326851056,0.10000534896220126
2.700000000000017,133.395,1.48267,241.3,-3.3,20.7,16.8,-6.648839089082561,4.820457685367935,0.20000529824477464
2.8000000000000114,133.286,1.7076,240.0,-6.7,21.2,16.9,-6.489376122252308,4.86210209936462,0.10000516429872253
2.9000000000000057,133.17,1.98275,239.8,-8.0,21.2,16.8,-6.306871619288058,4.89862194555425,0.20000500909740726
3.0,133.051,2.27463,240.5,-7.0,19.2,16.8,-6.07875270050468,4.915629367651365,0.20000479964400641
3.0999999999999943,132.935,2.55005,241.0,-6.2,18.2,16.8,-5.830643826640576,4.92031834495313,0.20000457082072698
3.200000000000017,132.809,2.84774,241.4,-5.9,18.3,16.8,-5.540393683953047,4.914781400081377,0.2000043061154413
3.3000000000000114,132.685,3.12198,241.6,-5.8,18.4,16.9,-5.207667136025479,4.8862190326912565,0.10000400300008128
3.4000000000000057,132.57,3.40773,241.8,-5.7,18.2,16.9,-4.8668266468745225,4.844421714745975,0.10000370174558704
3.5,132.459,3.65507,241.8,-5.9,18.0,16.9,-4.517687351628444,4.795216531764744,0.1000034069769411
3.5999999999999943,132.341,3.90869,241.8,-6.0,17.8,16.9,-4.1269037697632225,4.7340747456231,0.10000309471069602
3.700000000000017,132.228,4.16032,242.0,-5.7,17.9,16.9,-3.720094725692112,4.6617066079455975,0.10000278966418152
3.8000000000000114,132.116,4.40648,242.0,-5.6,17.8,16.9,-3.2874299204678272,4.576241063621351,0.10000249074087075
3.9000000000000057,132.008,4.62105,242.0,-5.3,17.2,17.0,-2.8542103764664386,4.486995295092528,2.2171538225368437e-06
4.0,131.894,4.78818,242.1,-5.2,16.1,17.0,-2.3789246202943017,4.38637035581898,1.95195634233869e-06
4.099999999999994,131.797,4.85886,242.4,-5.7,12.3,17.0,-1.92193553780809,4.277612063841529,1.7227222751659e-06
4.200000000000017,131.692,4.81762,242.7,-7.0,3.4,17.0,-1.4366576927066987,4.166707777138637,1.5214917775674408e-06
4.300000000000011,131.593,4.58583,243.3,-7.2,-6.6,17.1,-0.983974057462311,4.065082500447562,-0.09999862983995755
4.400000000000006,131.491,4.19761,243.6,-6.3,-16.7,17.1,-0.5323942115725768,3.9701471557375827,-0.0999987435538795
4.5,131.391,3.71143,243.6,-5.3,-23.2,17.0,-0.12001407429476542,3.89182217517358,1.1872844637786373e-06
4.599999999999994,131.284,3.27264,243.9,-5.1,-25.2,17.0,0.24563038586060723,3.8438618678775804,1.161883482730941e-06
4.700000000000017,131.179,2.77404,244.6,-6.4,-25.0,17.0,0.5508715566863103,3.8223178600507746,1.1669357065646757e-06
4.800000000000011,131.066,2.37796,245.1,-7.9,-25.2,16.9,0.8255816731585219,3.823020292206855,0.10000119781882899
4.900000000000006,130.963,1.94835,244.9,-8.3,-24.4,16.9,1.0453960185292974,3.838530890721965,0.10000123903101865
5.0,130.862,1.59953,244.8,-8.6,-23.3,16.9,1.2579171212853,3.85414840591305,0.10000128645168371
5.099999999999994,130.769,1.28338,244.4,-8.3,-22.6,16.9,1.3971764218879126,3.8944868209048558,0.10000134100846292
5.200000000000017,130.674,1.08297,244.1,-8.0,-22.5,16.9,1.5027088238094684,3.952565914060197,0.10000140085413556
5.300000000000011,130.576,0.976263,243.8,-8.2,-22.5,16.9,1.5731966923808178,4.027797651082482,0.10000146544995325
5.400000000000006,130.442,1.04574,243.5,-7.9,-22.5,17.0,1.6226833107143641,4.152570468899969,1.5569716513841314e-06
5.5,130.339,1.1729,243.4,-7.6,-22.1,17.0,1.6306527575765752,4.262412959016025,1.6324393607991539e-06
5.599999999999994,130.231,1.35918,243.5,-8.0,-21.8,17.0,1.605883529759343,4.390920227306937,1.7132910929973377e-06
5.700000000000017,130.131,1.6066,243.6,-8.3,-22.7,17.0,1.549282966579344,4.525636351534424,1.7929454790843735e-06
5.800000000000011,130.029,1.88023,243.5,-8.0,-23.2,17.0,1.4339608439298215,4.6884030933776195,1.8820252658535708e-06
5.900000000000006,129.926,2.13166,243.7,-8.5,-22.4,17.0,1.3206209598084926,4.851826619251,1.9803401003493093e-06
6.0,129.816,2.38932,244.1,-9.3,-21.7,17.0,1.176622890419334,5.037489011373833,2.0964155830194287e-06
6.099999999999994,129.708,2.62828,244.1,-9.3,-21.5,17.0,1.014172130061754,5.228382740363653,2.2214986935553682e-06
6.200000000000017,129.579,2.85765,244.1,-9.0,-21.5,17.1,0.8078059278817928,5.463525187222801,-0.09999761038007288
6.300000000000011,129.472,3.0872,244.1,-9.0,-21.6,17.1,0.5999429055415928,5.674931854747923,-0.09999744917582565
6.400000000000006,129.362,3.33389,244.0,-8.8,-21.6,17.1,0.35906960775775426,5.905873919564074,-0.09999725878109489
6.5,129.258,3.55282,244.0,-8.9,-21.5,17.1,0.10866078175925327,6.135555905203211,-0.09999705130961113
6.599999999999994,129.15,3.77451,243.9,-9.0,-20.9,17.1,-0.17559629183085948,6.386499236738832,-0.09999680345643266
6.700000000000017,129.037,3.95493,243.7,-8.6,-19.3,17.1,-0.4693368698555619,6.648035074241779,-0.09999652165188555
6.800000000000011,128.935,4.05471,243.1,-7.1,-15.3,17.1,-0.7897827233847703,6.912045322764751,-0.09999620897060468
6.900000000000006,128.833,4.01695,242.4,-4.8,-8.0,17.1,-1.0944516036320608,7.169579419337674,-0.09999588036642992
7.0,128.719,3.80554,242.2,-1.9,3.1,17.1,-1.3986581281073152,7.440730252028182,-0.09999550962541259
7.099999999999994,128.61,3.42984,242.1,-0.1,15.4,17.1,-1.6702069016653698,7.692108969623378,-0.09999514623619254
7.200000000000017,128.488,3.03742,242.3,0.5,22.0,17.2,-1.8988111118227977,7.938561928986797,-0.1999947817505633
7.300000000000011,128.363,2.61188,242.5,1.5,24.3,17.2,-2.073403715518977,8.162783523353525,-0.19999444436797986
7.400000000000006,128.22,2.22567,243.4,3.4,28.2,17.2,-2.2054100220539286,8.386646157866748,-0.19999410926190553
7.5,128.08,1.94058,244.0,4.6,29.6,17.1,-2.309612999334295,8.594310614708922,-0.0999937947434264
7.599999999999994,127.92,1.84806,244.4,5.5,28.5,17.1,-2.3408142587919336,8.788618086337102,-0.0999935199434534
7.700000000000017,127.75,1.87171,244.8,6.0,26.8,17.0,-2.3106413163464867,8.962717933769305,6.711653732338618e-06
7.800000000000011,127.555,2.03295,244.3,5.2,24.2,17.0,-2.2217930795077745,9.1371538917294,6.926409219731866e-06
7.900000000000006,127.371,2.24785,244.1,5.0,21.3,17.0,-2.0919015982803453,9.278666833480028,7.086400428346629e-06
8.0,127.151,2.51781,242.9,2.6,21.1,16.9,-1.910697343381224,9.434659268918987,0.10000725770049801
8.099999999999994,126.928,2.82243,242.6,2.5,20.8,16.9,-1.6934545699859056,9.576867074033682,0.10000740838020739
8.200000000000017,126.681,3.12831,242.0,1.1,19.8,16.9,-1.4197556551532151,9.717295407725114,0.10000755227466152
8.300000000000011,126.439,3.40788,241.3,-1.0,20.0,16.9,-1.120432165088152,9.841036926630542,0.10000768251287373
8.400000000000006,126.171,3.72527,241.3,-1.3,19.4,16.9,-0.746633246987048,9.958554239406677,0.10000781017653265
8.5,125.916,3.99766,241.7,-0.3,18.1,16.9,-0.3751517775281084,10.061736946210013,0.10000793964789345
8.599999999999994,125.643,4.28571,242.1,0.4,17.8,16.9,0.04945707939756923,10.161986999743792,0.10000808779527459
8.700000000000017,125.373,4.56629,242.3,0.6,18.2,16.9,0.48090840409411323,10.255875444492286,0.10000825532183749
8.800000000000011,125.055,4.8648,242.5,1.0,18.8,16.9,0.9957523416855418,10.364014371536289,0.10000849009918683
8.900000000000006,124.779,5.13529,242.6,1.3,18.3,16.9,1.4806142193715526,10.443064115377783,0.10000871319336557
9.0,124.488,5.40083,242.6,1.2,17.4,16.9,2.016390060401007,10.514805214202386,0.1000089779957759
9.099999999999994,124.201,5.64411,242.6,0.9,17.1,16.9,2.555581361946629,10.583506794879467,0.10000928592977143
9.200000000000017,123.897,5.88889,242.5,0.8,16.8,16.9,3.1621975628146424,10.641791469682326,0.10000965618191637
9.300000000000011,123.601,6.10102,242.5,0.8,16.2,16.8,3.7454025304577567,10.704726914604281,0.20001007797103476
9.400000000000006,123.29,6.22565,242.5,0.4,14.2,16.8,4.374759528258425,10.765745580595212,0.2000105829365908
9.5,122.995,6.19609,242.3,-2.9,6.9,16.9,4.97985589056846,10.822464824881507,0.10001112410674962
9.599999999999994,122.701,5.98668,242.7,-7.4,-4.6,16.9,5.60736935570043,10.871569825270225,0.10001173008661723
9.700000000000017,122.415,5.66677,243.1,-7.7,-13.9,16.9,6.176935682699273,10.937964956789648,0.10001237104930816
9.800000000000011,122.12,5.27157,243.1,-7.0,-19.6,16.9,6.737879585163014,11.021436343484664,0.10001308548906707
9.900000000000006,121.843,4.84996,243.8,-8.1,-22.2,17.0,7.232453389713622,11.114438907402306,1.3790015810144496e-05
10.0,121.558,4.51707,244.5,-9.4,-22.0,17.0,7.710380379704446,11.225021590127486,1.454594880856419e-05
10.099999999999994,121.278,4.17956,244.6,-9.8,-20.7,17.0,8.151662032100987,11.346517525582522,1.531102557406072e-05
10.200000000000017,121.001,3.91833,244.5,-9.8,-19.9,17.0,8.56949493960506,11.475115846767498,1.6090433821336347e-05
10.300000000000011,120.751,3.60808,244.3,-9.5,-19.9,17.0,8.919119860517888,11.603637866638323,1.6803903140960585e-05
10.400000000000006,120.499,3.35784,244.0,-9.2,-19.9,17.0,9.23965563811806,11.74621956985891,1.7522200918662634e-05
10.5,120.261,3.11667,243.9,-9.4,-19.4,17.0,9.533896454524116,11.884998076439903,1.8214249800863058e-05
10.599999999999994,120.014,2.89302,243.9,-10.2,-19.3,16.9,9.793112835289385,12.047977967980376,0.10001891383157346
10.700000000000017,119.783,2.67849,243.8,-10.6,-19.2,16.9,10.009274973109557,12.21101917767982,0.10001955999809553
10.800000000000011,119.545,2.48238,243.8,-10.7,-18.8,16.9,10.205184233733144,12.389922374916239,0.10002021705038544
10.900000000000006,119.316,2.32996,243.6,-10.3,-18.8,16.8,10.349107335289455,12.579127695811644,0.20002081896948898
11.0,119.093,2.22031,243.5,-10.1,-18.6,16.8,10.480336787730378,12.768295037529214,0.20002141085647107
11.099999999999994,118.878,2.14376,243.5,-9.8,-17.9,16.8,10.584595119340397,12.958187919627076,0.20002196655079096
11.200000000000017,118.653,2.12954,243.6,-9.9,-17.2,16.8,10.673174743536217,13.16582146787838,0.2000225387056318
11.300000000000011,118.429,2.114,243.7,-10.0,-16.8,16.8,10.732321362120928,13.383413666250313,0.2000230909496441
11.400000000000006,118.217,2.10939,243.7,-9.9,-16.8,16.9,10.76494491457368,13.599028126352032,0.10002360044646608
11.5,118.022,2.13558,243.7,-10.0,-16.9,16.9,10.77270366672574,13.805516241334285,0.10002405837872352
11.599999999999994,117.824,2.20034,243.8,-9.8,-16.7,16.9,10.757568469855077,14.024689382511832,0.1000245088380014
11.700000000000017,117.634,2.26261,243.7,-9.7,-16.4,16.9,10.72491390610159,14.242808652916036,0.10002493670805457
11.800000000000011,117.427,2.3357,243.6,-9.8,-16.3,17.0,10.66021148529656,14.491453125766235,2.5388997842767935e-05
11.900000000000006,117.245,2.42522,243.6,-10.0,-16.4,17.0,10.593642211139391,14.714353188772646,2.5786645418968135e-05
12.0,117.062,2.53477,243.6,-9.6,-16.5,17.0,10.505109441164517,14.946791854270984,2.6179786080327005e-05
12.099999999999994,116.889,2.62257,243.6,-9.8,-16.3,17.0,10.40408511740379,15.174518529445622,2.6550439907957468e-05
12.200000000000017,116.715,2.66711,243.4,-10.2,-13.6,17.1,10.284330858043887,15.411058545091224,-0.09997307698726132
12.300000000000011,116.547,2.65319,243.0,-10.0,-7.9,17.0,10.160423988534031,15.643466485332397,2.7287343836057687e-05
12.400000000000006,116.373,2.58323,242.5,-8.3,-2.8,17.0,10.028911995170409,15.885397981278604,2.7676642573304377e-05
12.5,116.21,2.42014,242.1,-6.3,3.9,17.1,9.916540539869041,16.10728267381227,-0.09997194258475695
12.599999999999994,116.032,2.16014,242.1,-4.0,12.5,17.0,9.817411641960405,16.341492900666452,2.8497198239385568e-05
12.700000000000017,115.869,1.9149,242.2,-2.2,18.9,17.0,9.758421685841283,16.542849121630418,2.8924824748699507e-05
12.800000000000011,115.695,1.7456,242.2,-1.4,22.1,17.1,9.734297261687281,16.741494413830775,-0.09997059335034653
12.900000000000006,115.531,1.68032,242.1,-1.0,22.8,17.0,9.755934402965172,16.90955308361441,2.9881594476144357e-05
13.0,115.361,1.70074,241.9,-0.9,21.9,17.0,9.804583255109467,17.073915674424597,3.0394722445592492e-05
13.099999999999994,115.197,1.83025,241.2,-2.2,20.9,16.9,9.904322153570405,17.21026553417674,0.10003091419928989
13.200000000000017,115.024,1.98629,241.0,-3.4,20.2,16.9,10.045561006444087,17.339352836235467,0.10003148516641858
13.300000000000011,114.864,2.20288,241.0,-3.6,19.4,16.9,10.21770651032994,17.441840547635415,0.10003203926530979
13.400000000000006,114.698,2.42836,241.1,-3.3,18.2,16.9,10.434830834404645,17.531704279894836,0.10003263786515504
13.5,114.543,2.66204,241.6,-2.0,16.6,16.9,10.666775658979459,17.603483654874836,0.10003322133725412
13.599999999999994,114.364,2.92413,242.0,-1.7,16.8,16.9,10.951712075556383,17.681288500574723,0.10003392032435965
13.700000000000017,114.191,3.20194,242.0,-2.5,18.5,16.9,11.250847742120119,17.745827911277726,0.10003462302474464
13.800000000000011,114.01,3.47126,242.2,-2.3,18.9,16.9,11.594751289748134,17.80340233892295,0.10003540128890354
13.900000000000006,113.828,3.73978,242.3,-2.3,18.2,16.9,11.97704257445206,17.84555766049412,0.10003622828437653
14.0,113.64,4.00752,242.3,-2.5,18.0,17.0,12.378399353394737,17.8893551822227,3.712028131097611e-05
14.099999999999994,113.461,4.25966,242.3,-2.5,18.1,17.0,12.785121826966822,17.92175805905336,3.801672490943986e-05
14.200000000000017,113.274,4.50823,242.3,-2.4,18.2,17.0,13.238533744710814,17.946646085131913,3.9015735391778605e-05
14.300000000000011,113.096,4.75797,242.3,-2.5,18.3,17.0,13.703347822296504,17.95803958396001,4.0031669980677975e-05
14.400000000000006,112.903,5.02139,242.3,-2.8,18.2,17.0,14.205390960773869,17.974206116606396,4.118002215580674e-05
14.5,112.717,5.22647,242.2,-2.9,17.0,17.0,14.706613448325172,17.984026328765566,4.234877491615663e-05
14.599999999999994,112.522,5.36696,242.2,-3.3,14.6,17.0,15.254204648307347,17.98983705962436,4.3655654955898626e-05
14.700000000000017,112.334,5.44338,242.3,-3.7,10.5,17.0,15.79538102929621,17.992096618977897,4.4983635694606505e-05
14.800000000000011,112.138,5.46396,242.5,-3.3,5.5,17.1,16.358992188781457,17.997922874395478,-0.09995357360096513
14.900000000000006,111.949,5.39478,242.7,-3.2,0.6,17.1,16.895603089280996,18.007819389073127,-0.09995214070671388
15.0,111.75,5.23603,243.0,-4.9,-5.1,17.1,17.450756278012744,18.025352827351703,-0.09995059190572864
15.099999999999994,111.56,4.93004,243.6,-7.1,-13.6,17.1,17.95690262272238,18.05180631729899,-0.09994910602405938
15.200000000000017,111.359,4.53254,244.1,-7.8,-21.7,17.0,18.481070844448347,18.08563678896779,5.249208168223163e-05
15.300000000000011,111.166,4.07084,244.1,-7.5,-26.2,17.0,18.906419456907372,18.146716369309786,5.391602286941577e-05
15.400000000000006,110.96,3.65787,244.5,-7.8,-26.6,17.0,19.302444893412158,18.23293685469412,5.5353217932818666e-05
15.5,110.761,3.2387,245.0,-8.7,-26.7,17.0,19.633374439841734,18.333843304232477,5.665598707871311e-05
15.599999999999994,110.54,2.91733,245.0,-9.2,-27.3,16.9,19.950630325978178,18.46278474658923,0.10005801561328376
15.700000000000017,110.339,2.57874,245.0,-9.7,-27.7,16.9,20.187776484608754,18.598279124927995,0.10005915872170945
15.800000000000011,110.126,2.32148,244.8,-10.0,-27.5,16.9,20.38663029034167,18.75804380188152,0.10006026033774518
15.900000000000006,109.924,2.12948,244.6,-10.2,-27.6,17.0,20.53339149765029,18.922780524385658,6.121774645428957e-05
16.0,109.716,2.03781,244.7,-10.7,-28.0,17.0,20.649433546883632,19.10481470693074,6.21380380945169e-05
16.099999999999994,109.513,2.06422,244.7,-10.8,-27.8,17.0,20.70950202563664,19.299037577074067,6.291666772462179e-05
16.200000000000017,109.297,2.19262,244.5,-10.5,-27.1,16.9,20.726547632061994,19.520951808967606,0.10006364559472836
16.30000000000001,109.092,2.37048,244.4,-10.3,-26.5,16.9,20.699325558000922,19.745165149582018,0.10006424685959736
16.400000000000006,108.87,2.59382,244.5,-10.3,-25.8,16.9,20.615528945138674,20.005906149824703,0.10006478634733895
16.5,108.665,2.82176,244.7,-10.4,-25.4,16.9,20.51549012003018,20.253954574520698,0.10006524459632438
16.599999999999994,108.45,3.08586,244.7,-10.4,-25.5,17.0,20.375656688671324,20.52645693575292,6.566484827885688e-05
16.700000000000017,108.245,3.34278,244.7,-10.3,-25.5,17.0,20.209236141700302,20.79731709744548,6.601149255303085e-05
16.80000000000001,108.029,3.59532,244.6,-10.0,-25.5,17.0,20.00030160599939,21.094456109577475,6.632445634124906e-05
16.900000000000006,107.824,3.86618,244.6,-9.8,-25.4,17.0,19.750549208641203,21.394222335650525,6.654068776867916e-05
17.0,107.609,4.16038,244.6,-9.9,-25.0,17.0,19.48640107876794,21.710698259653242,6.67939269511919e-05
17.099999999999994,107.401,4.41097,244.7,-10.1,-24.6,17.1,19.203479826798322,22.027632809335167,-0.0999329818080561
17.200000000000017,107.18,4.65811,244.5,-10.1,-23.9,17.1,18.87650127192601,22.37467201146906,-0.09993275491009967
17.30000000000001,106.963,4.8423,244.3,-9.9,-21.5,17.1,18.52748119935016,22.727431367832,-0.09993253646262268
17.400000000000006,106.751,4.92396,243.6,-8.8,-15.9,17.2,18.161199229066895,23.082696068974887,-0.19993231959693247
17.5,106.546,4.89661,242.6,-6.1,-7.7,17.2,17.814811551225084,23.426054373617596,-0.1999320489466978
17.599999999999994,106.325,4.71702,242.1,-2.4,1.8,17.2,17.467363454505367,23.788444000458014,-0.19993167463959427
17.700000000000017,106.116,4.42123,242.3,0.1,12.3,17.2,17.148608618629606,24.12902244198126,-0.19993126386619942
