time,distance(meters),speed(m/s), compass_heading(degrees), pitch(degrees), roll(degrees),height_above_takeoff(meters),North,East,Down
0.0,14.3664,0.555749,240.2,-17.3,13.0,17.0,0.0,0.0,0.0
0.10000000000002274,14.3942,1.0509,239.0,-20.0,20.0,17.0,0.054910972407233964,-0.06811475696692618,-1.5656224580662403e-10
0.19999999999998863,14.4506,1.53116,238.7,-20.5,20.2,17.0,0.11932352049877908,-0.17529433956402463,3.4385196009956154e-09
0.30000000000001137,14.5371,1.97965,238.3,-22.2,18.8,17.0,0.2065252936057206,-0.33089302700472345,1.2228216175746986e-08
0.4000000000000341,14.6452,2.37115,238.4,-24.1,15.8,17.0,0.29912548141740514,-0.5127875841860909,2.771627735653759e-08
0.5,14.7913,2.56073,239.1,-24.4,12.3,17.0,0.3851165278314143,-0.7324887630225543,5.521253657048142e-08
0.6000000000000227,14.9544,2.89793,239.4,-24.9,11.2,17.0,0.48840086861869214,-0.9786557333136812,9.361293357157408e-08
0.6999999999999886,15.1559,3.23879,239.5,-24.6,12.4,17.0,0.6062962509774372,-1.2729955172388023,1.5622086652067324e-07
0.8000000000000114,15.3736,3.56413,239.7,-23.7,13.8,17.0,0.7323719902621362,-1.585537918394341,2.3952638072977095e-07
0.9000000000000341,15.6267,3.90183,239.9,-23.3,13.3,17.0,0.9038939687736159,-1.955113865638064,3.638834019659143e-07
1.0,15.8953,4.19351,239.9,-23.7,12.2,17.0,1.0615619934986893,-2.3283288055813314,5.133243610178084e-07
1.1000000000000227,16.206,4.48466,239.9,-24.4,12.3,17.0,1.239078398046593,-2.7501518360551374,7.136419576392328e-07
1.1999999999999886,16.5285,4.77445,240.1,-24.4,12.2,17.0,1.410007356737621,-3.1747317973039446,9.460633579871924e-07
1.3000000000000114,16.8958,5.02278,240.1,-24.6,11.0,17.0,1.5904747773435626,-3.6445405078284034,1.2391438153347423e-06
1.400000000000034,17.2792,5.27867,240.2,-24.9,10.5,17.0,1.7778190210865512,-4.126745848890078,1.5827416629532465e-06
1.5,17.7098,5.50909,240.2,-25.5,10.7,17.0,1.966003434594019,-4.6521132015820585,1.9999305785889376e-06
1.6000000000000227,18.1452,5.71154,240.4,-25.3,10.0,17.0,2.1428026548228583,-5.17164974187928,2.4559923437195152e-06
1.6999999999999886,18.6268,5.78705,241.7,-23.6,4.4,17.0,2.320486866842061,-5.733500588277298,2.998568540135693e-06
1.8000000000000114,19.0971,5.67483,243.3,-20.2,-4.3,17.0,2.4668732101099398,-6.2684140706616525,3.555937492905059e-06
1.900000000000034,19.5881,5.46153,244.4,-15.3,-14.3,17.0,2.598267494330128,-6.816180496831238,4.1702966011580855e-06
2.0,20.0516,5.15352,244.7,-11.3,-23.5,17.1,2.6902959445208197,-7.3213444469411275,-0.09999523207778904
2.1000000000000227,20.5299,4.83346,244.2,-8.9,-27.2,17.1,2.7469659553985055,-7.830510051803543,-0.09999460337035271
2.1999999999999886,20.9746,4.60553,244.8,-9.6,-27.0,17.1,2.7742632593122316,-8.296374277065771,-0.09999400255953317
2.3000000000000114,21.4369,4.45403,245.7,-11.9,-26.8,17.1,2.7530138589624777,-8.767740947079345,-0.099993382669602
2.400000000000034,21.875,4.30905,245.7,-12.6,-26.8,17.0,2.6964421204446105,-9.205386645785609,7.208595887542302e-06
2.5,22.3296,4.2505,245.6,-12.8,-26.2,17.0,2.596948246148121,-9.649909579074738,7.82439267732471e-06
2.6000000000000227,22.7802,4.185,245.9,-13.3,-26.0,17.0,2.4957350998260766,-10.089760640239847,8.463176922379745e-06
2.6999999999999886,23.2021,4.14436,246.0,-13.6,-26.2,17.0,2.319947515119738,-10.482247531431156,9.029158510864832e-06
2.8000000000000114,23.5915,4.15646,246.1,-14.0,-25.6,17.0,2.110436253454326,-10.832609161067,9.54114062867717e-06
2.900000000000034,23.9915,4.24294,246.1,-14.6,-24.9,17.0,1.8492398579233267,-11.180204391041869,1.005829264111302e-05
3.0,24.3624,4.35195,246.1,-14.8,-25.0,17.0,1.5680932191570383,-11.491272215624683,1.0534933572281524e-05
3.1000000000000227,24.7249,4.43788,246.0,-14.5,-25.1,17.0,1.2236576770291454,-11.774612339295505,1.0975882456243369e-05
3.1999999999999886,25.0856,4.58671,246.0,-14.4,-25.3,17.0,0.8814521511065625,-12.05396027807218,1.1441105149223585e-05
3.3000000000000114,25.4634,4.73627,246.0,-14.3,-25.4,17.0,0.4909173579327267,-12.334007071513629,1.1933164672378593e-05
3.400000000000034,25.8118,4.90148,246.1,-14.5,-25.2,17.0,0.09576646464836952,-12.578328330221847,1.2391243187213907e-05
3.5,26.1351,5.0168,246.2,-14.6,-25.0,17.0,-0.3404523170785858,-12.778907210717342,1.2799061529872313e-05
3.6000000000000227,26.4807,5.1932,246.2,-14.8,-24.5,17.0,-0.7809230348567741,-12.996541287792912,1.3276921795035701e-05
3.6999999999999886,26.8514,5.37135,246.1,-14.9,-24.4,17.0,-1.2678953883433848,-13.219368570486893,1.3812483820596633e-05
3.8000000000000114,27.2172,5.52023,246.1,-15.2,-24.8,17.0,-1.7619146631718778,-13.428439859192235,1.4366897198136996e-05
3.900000000000034,27.6292,5.7233,245.9,-15.4,-24.8,17.0,-2.322917445617128,-13.65487764805211,1.5028003344852436e-05
4.0,28.0112,5.90411,245.8,-15.5,-23.4,17.0,-2.8659277134655703,-13.848680903583093,1.5666160660510187e-05
4.100000000000023,28.4196,6.04236,245.6,-16.4,-21.3,17.0,-3.4539948256872464,-14.044550035737014,1.6387090008063154e-05
4.199999999999989,28.817,6.1348,244.9,-19.9,-16.2,17.0,-4.022908542382577,-14.228656364811782,1.7129250104108706e-05
4.300000000000011,29.2469,6.03503,242.3,-23.6,-1.8,17.0,-4.620031512416566,-14.427874351681197,1.7982736709054592e-05
4.400000000000034,29.6829,5.88391,239.6,-22.3,15.2,16.9,-5.156653548110198,-14.655293350012107,0.10001891182013978
4.5,30.1628,5.71911,239.1,-19.1,21.6,16.9,-5.681580097619921,-14.93211209566445,0.10002000179040182
4.600000000000023,30.6338,5.57587,237.5,-19.6,20.8,16.9,-6.146782363563435,-15.225079088238584,0.10002112696837218
4.699999999999989,31.1417,5.4559,237.0,-19.1,22.5,17.0,-6.597575887078635,-15.564375819269255,2.2397385078143373e-05
4.800000000000011,31.6232,5.32025,237.7,-17.9,24.3,17.0,-6.984891509805701,-15.905232083330471,2.3651145369285587e-05
4.900000000000034,32.1547,5.31429,238.5,-17.5,23.0,16.9,-7.347218013199706,-16.31495798499465,0.10002509344462185
5.0,32.6706,5.37611,238.8,-18.3,20.3,16.9,-7.66192470298966,-16.732170205204042,0.10002654476500039
5.100000000000023,33.2228,5.41632,238.9,-19.1,18.1,16.9,-7.965307116947487,-17.19656725521398,0.10002815172998192
5.199999999999989,33.7561,5.52221,239.4,-18.8,16.8,16.9,-8.232822900112737,-17.65870182141243,0.10002975430121408
5.300000000000011,34.3241,5.60886,239.8,-18.7,15.3,16.9,-8.475312110125607,-18.173937919735657,0.10003151955406375
5.400000000000034,34.8792,5.72612,239.9,-18.9,14.5,16.9,-8.686383134885796,-18.691291323358364,0.10003329840898267
5.5,35.4749,5.82067,239.9,-19.5,14.8,16.9,-8.887781248302996,-19.259858057193775,0.10003526599204449
5.600000000000023,36.0422,5.9433,240.0,-19.2,14.6,16.9,-9.054351540326177,-19.81455987247289,0.10003719973455372
5.699999999999989,36.6262,6.06617,240.1,-18.6,14.3,16.9,-9.195656886989052,-20.400920594326166,0.10003924832761069
5.800000000000011,37.1919,6.07305,239.9,-19.3,14.7,16.9,-9.31227672885402,-20.97890736830235,0.10004129210216206
5.900000000000034,37.7973,6.27309,240.0,-18.9,14.9,17.0,-9.416306786798216,-21.607221906557953,4.3541485228892896e-05
6.0,38.3939,6.43613,239.9,-19.1,14.9,17.0,-9.486114184113713,-22.2418441634913,4.5824092516966175e-05
6.100000000000023,39.0205,6.5948,239.7,-20.0,15.1,17.0,-9.546092621995275,-22.91351320402301,4.828911998888685e-05
6.199999999999989,39.6241,6.76202,239.6,-20.0,15.2,17.0,-9.584291024167063,-23.568560402212235,5.073152901591271e-05
6.300000000000011,40.2662,6.89158,239.7,-19.7,15.1,17.0,-9.604942421465463,-24.272976570854304,5.3401773152828014e-05
6.400000000000034,40.8831,7.03739,239.8,-19.8,14.5,17.0,-9.612242643505216,-24.953637995974397,5.603633192308166e-05
6.5,41.5393,7.16518,240.1,-20.4,12.5,17.0,-9.61500609443863,-25.677566498238722,5.8911265022665305e-05
6.600000000000023,42.1818,7.25758,240.7,-20.7,9.1,17.0,-9.601238370195649,-26.391502022646346,6.180141554779084e-05
6.699999999999989,42.8744,7.24152,242.1,-21.6,2.2,17.0,-9.585583566139674,-27.158854112864223,6.499672393900369e-05
6.800000000000011,43.5221,7.09214,244.6,-21.5,-10.0,17.0,-9.588277554029858,-27.866378464229033,6.804929678061455e-05
6.900000000000034,44.1934,6.90541,245.5,-17.8,-22.2,17.0,-9.620941947583221,-28.584808460598524,7.127444837173869e-05
7.0,44.8279,6.74012,244.9,-14.9,-25.8,17.0,-9.70254254834229,-29.240928798949227,7.437075576532948e-05
7.100000000000023,45.4923,6.5808,245.5,-14.6,-25.2,17.0,-9.830634599555605,-29.90920730965,7.76631802574812e-05
7.199999999999989,46.1182,6.44802,245.8,-13.9,-25.7,17.0,-9.984552172625502,-30.524317526032156,8.081451557195862e-05
7.300000000000011,46.7547,6.30869,245.7,-13.3,-26.9,17.0,-10.160673062258118,-31.14149362430751,8.4073317205835e-05
7.400000000000034,47.3719,6.20629,245.6,-13.0,-27.6,17.0,-10.381427569874074,-31.719022711791418,8.727310448897185e-05
7.5,48.0161,6.18338,245.5,-13.0,-27.8,17.0,-10.653110464290322,-32.304574597118304,9.065890615023164e-05
7.600000000000023,48.621,6.16169,245.8,-13.5,-27.4,17.0,-10.953415992188129,-32.83553011734435,9.387893248558044e-05
7.699999999999989,49.2959,6.17289,246.1,-13.9,-27.1,17.0,-11.318492197381723,-33.41500719250119,9.752513080574232e-05
7.800000000000011,49.8814,6.16687,246.1,-13.7,-27.1,17.0,-11.693396087126974,-33.89284046545578,0.0001007231540697262
7.900000000000034,50.4842,6.23891,246.1,-13.9,-27.4,17.0,-12.12168886966068,-34.36594670297545,0.00010405471405050548
8.0,51.0478,6.32393,245.9,-13.9,-27.6,17.0,-12.560560473640978,-34.79069588255665,0.00010720653531492985
8.100000000000023,51.6322,6.41024,245.9,-13.9,-27.6,17.0,-13.054726617215245,-35.212547080612886,0.00011051516458326915
8.199999999999989,52.1605,6.5316,246.0,-14.2,-27.6,17.0,-13.56990585689249,-35.561679427641295,0.00011353012641812654
8.300000000000011,52.7402,6.65545,246.2,-14.7,-27.2,17.0,-14.130019012738964,-35.9444985297578,0.00011689509106194151
8.400000000000034,53.2866,6.80669,246.5,-15.3,-26.3,17.0,-14.687054913129126,-36.289281860053975,0.00012010835093967387
8.5,53.8581,6.9373,246.6,-15.5,-26.5,17.0,-15.297278869595017,-36.633992878126065,0.00012351735833959765
8.600000000000023,54.395,7.09781,246.5,-15.4,-27.1,17.0,-15.909699040840987,-36.93558575141708,0.00012675817255036748
8.699999999999989,54.9713,7.24581,246.6,-15.5,-27.2,17.0,-16.577465722724668,-37.2502036791016,0.0001302932062863249
8.800000000000011,55.5093,7.37312,246.7,-15.9,-27.0,17.0,-17.22618601642655,-37.52709124454967,0.00013364108686797493
8.900000000000034,56.0706,7.52956,246.7,-18.5,-24.9,17.0,-17.921695456519387,-37.80182923077517,0.00013718518516192546
9.0,56.5804,7.60898,245.7,-23.5,-15.3,17.0,-18.58237146822312,-38.03170004642119,0.00014044829013215576
9.100000000000023,57.1797,7.54253,242.5,-24.7,0.0,16.9,-19.29433362232476,-38.331062905380534,0.10014435965826252
9.199999999999989,57.788,7.35138,239.8,-21.2,15.0,16.9,-19.96879530949252,-38.656731724575344,0.10014840796580238
9.300000000000011,58.4508,7.10883,238.8,-18.4,22.4,16.9,-20.649376835331815,-39.0376386648108,0.10015289963455132
9.400000000000034,59.0984,6.88688,237.6,-17.3,22.7,16.9,-21.283488485170583,-39.42410516724633,0.10015736709163114
9.5,59.7352,6.67422,237.6,-15.4,24.0,16.9,-21.834288288373266,-39.843398817158516,0.10016183878289375
9.600000000000023,60.3449,6.52212,238.4,-14.0,25.4,16.9,-22.316533310323862,-40.26971822209967,0.10016618997891769
9.699999999999989,60.9882,6.39711,238.6,-13.9,24.4,16.9,-22.78053635068477,-40.744852982542554,0.10017085047284091
9.800000000000011,61.5893,6.16222,239.0,-13.7,24.0,16.9,-23.171789038915136,-41.21303404541923,0.10017527008639249
9.900000000000034,62.1887,6.0965,239.7,-12.9,24.4,16.9,-23.522269961113217,-41.70295737359219,0.10017973968123783
10.0,62.7886,6.11003,239.8,-13.1,23.6,16.9,-23.831626589663653,-42.21755172358293,0.10018427400809315
10.100000000000023,63.4258,6.12071,239.6,-13.7,22.8,16.9,-24.12238866169324,-42.78629965697324,0.10018915762612046
10.199999999999989,64.0182,6.18243,239.7,-13.8,22.7,16.9,-24.35181703609706,-43.338948654887965,0.10019375988146173
10.300000000000011,64.6349,6.23551,239.8,-13.6,22.7,16.9,-24.552355400642455,-43.936426465990166,0.10019861530476781
10.400000000000034,65.2261,6.34052,240.0,-13.2,22.8,16.9,-24.70977289920922,-44.52908900254437,0.10020333146265514
10.5,65.855,6.43741,240.0,-13.1,22.5,17.0,-24.846261446976335,-45.17674204247388,0.00020841451788378151
10.600000000000023,66.4514,6.55856,240.1,-12.7,22.3,17.0,-24.935620952899097,-45.81317169406029,0.00021329963861838053
10.699999999999989,67.1152,6.62269,240.0,-12.8,21.9,17.0,-25.004990044174015,-46.537399478102266,0.00021880994440692803
10.800000000000011,67.6895,6.68867,239.9,-12.9,22.0,17.0,-25.01755652762136,-47.18924014535169,0.0002236433649631664
10.900000000000034,68.278,6.85052,240.1,-12.5,21.9,17.0,-24.991402736169086,-47.87706212453139,0.00022866246405328639
11.0,68.8389,7.00942,239.8,-13.2,21.5,17.0,-24.937119157279916,-48.546658385356565,0.00023350600163674073
11.100000000000023,69.4081,7.14387,239.6,-14.1,21.3,17.0,-24.84646455189391,-49.24299142036854,0.00023848402305404193
11.199999999999989,69.9714,7.28461,239.6,-14.7,20.3,17.0,-24.738660375316563,-49.93898069804179,0.00024346836020328055
11.300000000000011,70.5652,7.37877,240.0,-15.6,17.4,17.0,-24.60266540853263,-50.681219199893135,0.000248788709651393
11.400000000000034,71.1309,7.38748,241.5,-18.6,8.1,17.0,-24.462841886158543,-51.390462208893226,0.0002539187730281611
11.5,71.7279,7.22823,244.0,-21.4,-8.1,17.0,-24.32647984075473,-52.12985589636914,0.0002593900179412856
11.600000000000023,72.3124,6.95686,245.1,-18.2,-21.7,17.0,-24.231216108918122,-52.831721803826866,0.00026479584271754675
11.699999999999989,72.9249,6.6678,244.7,-14.8,-25.1,17.1,-24.186421687684998,-53.53765931114532,-0.0997294944000835
11.800000000000011,73.5024,6.38405,245.6,-15.0,-24.5,17.1,-24.18050324869199,-54.18392105238543,-0.09972406493044872
11.900000000000034,74.103,6.17137,246.0,-14.8,-25.2,17.1,-24.212258764996893,-54.83643766351156,-0.0997183726785078
12.0,74.6744,5.99638,245.6,-13.8,-26.5,17.1,-24.272855168237648,-55.44186499309971,-0.09971291266253779
12.100000000000023,75.2616,5.93983,245.5,-13.8,-26.8,17.0,-24.383475198644636,-56.04034975530963,0.0002927342496406027
12.199999999999989,75.8314,5.82085,245.6,-13.7,-26.9,17.0,-24.536095511387266,-56.599413689126,0.0002982558857862472
12.300000000000011,76.436,5.66673,245.6,-13.6,-27.3,17.0,-24.74411429443608,-57.17062834723964,0.00030415033380926104
12.400000000000034,77.0383,5.63452,245.7,-13.5,-27.5,17.0,-24.986238580035426,-57.723155608199484,0.0003100699951765762
12.5,77.6177,5.61388,245.9,-13.9,-27.4,17.0,-25.27503813099056,-58.22819660254372,0.0003157990789830478
12.600000000000023,78.16,5.61364,246.0,-14.2,-27.4,17.0,-25.58676659241712,-58.68126829386866,0.0003211940218932341
12.699999999999989,78.7211,5.6206,245.9,-14.2,-27.3,17.0,-25.950668894178776,-59.130178189196045,0.00032681133714262955
12.800000000000011,79.214,5.63568,246.0,-14.3,-27.2,17.0,-26.335194459381484,-59.493141964282174,0.0003317666425424193
12.900000000000034,79.7532,5.73978,246.2,-14.8,-27.4,17.0,-26.760511693116047,-59.88740989195673,0.00033722972616700986
13.0,80.261,5.85072,246.2,-15.0,-27.1,17.0,-27.19999376008358,-60.2392470299268,0.00034240468265700486
13.100000000000023,80.7908,5.96285,246.2,-15.0,-26.8,17.0,-27.69555058966047,-60.58714385874903,0.0003478379720061042
13.199999999999989,81.2919,6.08963,246.5,-15.6,-26.5,17.0,-28.191642171308054,-60.901491592413855,0.0003530099148107979
13.300000000000011,81.7997,6.21273,246.5,-15.8,-26.5,17.0,-28.75061065263229,-61.190530880435695,0.000358279010447049
13.400000000000034,82.2957,6.3734,246.4,-15.6,-26.8,17.0,-29.298434158236134,-61.470138487271385,0.00036346679251053615
13.5,82.8157,6.52536,246.5,-15.6,-26.8,17.0,-29.90158113221903,-61.74644730305412,0.0003689433454550084
13.600000000000023,83.3077,6.69587,246.6,-15.8,-26.9,17.0,-30.499235241966694,-61.991757709520456,0.00037416113498700554
13.699999999999989,83.8115,6.87981,246.4,-15.9,-26.8,16.9,-31.170994597621032,-62.208849093764854,0.10037953131483235
13.800000000000011,84.3087,7.02614,246.3,-16.9,-26.1,16.9,-31.816719503343364,-62.4291030030916,0.10038488224236986
13.900000000000034,84.8421,7.16215,246.6,-22.9,-21.8,16.9,-32.51409227901228,-62.659651886729506,0.10039067026960602
14.0,85.3633,7.23247,244.6,-27.7,-10.2,16.9,-33.18313873601221,-62.88834484591162,0.1003963779367254
14.100000000000023,85.9282,7.09691,240.9,-27.1,5.9,16.9,-33.880548861909325,-63.14818917469334,0.10040262333317251
14.199999999999989,86.4762,6.90838,239.1,-22.9,17.9,16.9,-34.491422382463725,-63.434372858516625,0.10040874684646539
14.300000000000011,87.0562,6.68478,238.1,-20.2,21.2,16.9,-35.08290090225299,-63.76639347751511,0.10041529154181816
14.400000000000034,87.6145,6.49216,237.1,-19.1,21.8,16.9,-35.61218453431685,-64.10742535779477,0.10042165245739554
14.5,88.1765,6.2724,237.3,-17.0,23.9,16.9,-36.10884202593148,-64.47051260077582,0.10042811101255822
14.600000000000023,88.7474,6.10693,238.2,-15.1,25.0,16.9,-36.56734560369908,-64.86519373984764,0.10043473097547206
14.699999999999989,89.3544,5.96819,238.8,-14.5,24.4,16.8,-37.00999323739,-65.31039992553039,0.2004418337814009
14.800000000000011,89.9285,5.73211,238.8,-15.0,23.9,16.9,-37.39015248753183,-65.75384363598972,0.1004486095361159
14.900000000000034,90.5263,5.66832,239.3,-14.3,24.2,16.9,-37.74466315104756,-66.23951859052414,0.10045572686235715
15.0,91.1277,5.69653,239.8,-13.8,24.2,16.9,-38.100029073748296,-66.72890515294839,0.10046294231187147
15.100000000000023,91.7176,5.70938,239.7,-14.6,23.5,16.8,-38.362691344524876,-67.25920127215736,0.20047008918318454
15.199999999999989,92.2752,5.78148,239.7,-14.7,23.0,16.8,-38.57013189682127,-67.78447296446873,0.20047690029764453
15.300000000000011,92.8573,5.84601,239.6,-14.5,22.8,16.8,-38.7443884393134,-68.35732273429775,0.20048406700265886
15.400000000000034,93.4267,5.95484,239.6,-14.4,22.7,16.8,-38.889243695738394,-68.93228011371227,0.20049113391085882
15.5,94.0026,6.04956,239.6,-14.1,22.4,16.8,-38.98352563898174,-69.54370365105366,0.20049834239675235
15.600000000000023,94.5486,6.16641,239.5,-14.2,22.5,16.8,-39.042199650182795,-70.14044870982349,0.20050523187953928
15.699999999999989,95.1201,6.28838,239.5,-14.0,22.5,16.8,-39.07163677381443,-70.78258767810684,0.20051249861828424
15.800000000000011,95.68,6.38515,239.6,-15.2,21.1,16.8,-39.06564206077826,-71.43036247004662,0.20051967688564076
15.900000000000034,96.244,6.53641,239.6,-17.4,17.4,16.9,-39.02899825633699,-72.09870450550352,0.10052696331593225
16.0,96.7842,6.68403,239.2,-20.4,14.9,16.9,-38.981029778757815,-72.7446537619704,0.10053399613601499
16.100000000000023,97.3615,6.84599,239.3,-23.1,13.8,16.9,-38.922470695157195,-73.43730295614668,0.10054156625151833
16.19999999999999,97.9269,7.01508,239.9,-27.5,9.7,16.9,-38.866428491571845,-74.11328830753365,0.10054903528277848
16.30000000000001,98.5399,7.1659,241.6,-30.3,2.1,16.9,-38.81480110371622,-74.83950199865089,0.10055719214598824
16.400000000000034,99.1458,7.2768,242.8,-30.3,-3.5,16.9,-38.785299159895146,-75.54403450810256,0.10056530907012373
16.5,99.802,7.29832,243.2,-28.8,-5.4,16.9,-38.7772864551207,-76.29264008550204,0.10057416123398255
16.600000000000023,100.434,7.28219,242.9,-23.0,-4.4,16.9,-38.78701875703436,-77.00331301880033,0.10058275239318704
16.69999999999999,101.089,7.11515,242.5,-16.6,-2.6,16.9,-38.796144006217816,-77.73826384517629,0.10059171528829935
16.80000000000001,101.69,6.62994,242.8,-7.9,-3.6,17.0,-38.8184178253915,-78.40577397934027,0.0006000140393602749
16.900000000000034,102.259,5.93569,239.7,20.4,-14.6,17.0,-38.84379470698899,-79.03324233918339,0.0006079059654666708
17.0,102.755,5.36863,237.7,27.0,-19.4,17.0,-38.869212650808116,-79.57908683723231,0.0006148407992121463
17.100000000000023,103.253,4.75126,239.4,22.3,-16.6,17.1,-38.89527842348353,-80.12596359207916,-0.0993781575668784
17.19999999999999,103.662,4.0599,237.7,27.9,-16.8,17.1,-38.91718918419342,-80.57357381237124,-0.09937238986330144
17.30000000000001,104.035,3.4778,238.8,24.6,-17.2,17.1,-38.94277578048215,-80.979990297436,-0.09936709171939029
