time,distance(meters),speed(m/s), compass_heading(degrees), pitch(degrees), roll(degrees),height_above_takeoff(meters),North,East,Down
0.0,6.90418,1.64552,234.6,-15.3,22.2,14.9,0.0,0.0,0.0
0.10000000000002274,7.04946,2.12876,233.4,-19.9,21.6,14.9,0.1277164265090709,-0.13435786746903203,2.4200956932896034e-09
0.20000000000004547,7.22959,2.59631,233.4,-21.0,20.6,14.9,0.26510925192976803,-0.3008633770956396,1.1686908815700114e-08
0.2999999999999545,7.44468,2.83,233.9,-20.5,18.7,14.9,0.3913254634312896,-0.502263433348874,3.165877154875929e-08
0.39999999999997726,7.70449,3.22914,234.3,-19.7,18.2,14.9,0.5572930474411422,-0.7417507284916075,6.741855335112845e-08
0.5,8.01653,3.56214,234.6,-19.0,18.5,14.9,0.7533508743658341,-1.0270366606226713,1.2650163766503297e-07
0.6000000000000227,8.34816,3.90365,235.1,-18.5,18.4,14.9,0.9602294248276222,-1.3275205330256845,2.0965930264127408e-07
0.7000000000000455,8.72864,4.07056,236.7,-18.3,10.7,14.9,1.1937248137221823,-1.6697597652415737,3.302932302107209e-07
0.7999999999999545,9.10043,3.99024,239.1,-16.0,-6.0,15.0,1.4324031159290382,-1.9988725615757728,-0.0999995260161396
0.8999999999999773,9.48795,3.69961,240.2,-12.3,-22.1,15.0,1.6441041510023668,-2.347869491095344,-0.09999935630865064
1.0,9.82858,3.30596,239.9,-9.8,-27.5,15.0,1.806194943736148,-2.6593003846034216,-0.09999918931187024
1.1000000000000227,10.1497,2.84798,239.9,-8.4,-26.4,15.0,1.9301636554079291,-2.959649148967093,-0.09999902209543454
1.2000000000000455,10.4309,2.46047,240.3,-8.9,-27.6,15.0,2.0119576726059405,-3.229513222446097,-0.09999886475518105
1.2999999999999545,10.6652,2.20504,240.6,-9.1,-29.0,15.0,2.0560337767369585,-3.460484354805014,-0.09999873000909709
1.3999999999999773,10.8729,1.93692,240.5,-8.6,-28.3,15.0,2.069783081666656,-3.6717388732192258,-0.09999860768215452
1.5,11.0769,1.82333,241.1,-9.6,-28.0,15.0,2.054997668875819,-3.8859927975409594,-0.09999848603809325
1.6000000000000227,11.3047,1.79948,241.2,-10.2,-28.0,15.0,2.057021353303891,-4.120421569745112,-0.09999833806325176
1.7000000000000455,11.4345,1.81003,240.6,-9.5,-28.6,15.0,1.9573319198288375,-4.277450145136577,-0.09999826508529064
1.7999999999999545,11.5168,1.92385,240.0,-8.5,-29.2,15.0,1.8225305862422705,-4.391772106639875,-0.09999822753567189
1.8999999999999773,11.554,2.15105,239.9,-8.3,-28.9,15.0,1.6355869191248855,-4.468206353094845,-0.09999822632429578
2.0,11.5274,2.39063,240.6,-10.1,-28.6,15.0,1.3955683249587119,-4.485625329864961,-0.09999827161295849
2.1000000000000227,11.5387,2.63321,241.6,-15.0,-26.1,15.0,1.1294809770261391,-4.540442351267865,-0.09999828571531422
2.2000000000000455,11.5482,2.88015,242.9,-23.3,-20.7,15.0,0.8551416972895984,-4.587941291437291,-0.09999829442997937
2.2999999999999545,11.5758,3.05524,241.0,-29.0,-9.3,15.0,0.551987273693771,-4.6497165230077595,-0.09999828327003124
2.3999999999999773,11.6421,3.17396,237.7,-28.7,4.6,15.0,0.260569671832837,-4.741389368834069,-0.09999823371959113
2.5,11.7449,3.24401,236.0,-26.2,12.2,15.0,-0.0308221527621269,-4.861918332955699,-0.09999814963657995
2.6000000000000227,11.9053,3.32884,234.9,-25.4,14.7,15.0,-0.2949304753499714,-5.032052005043228,-0.09999801060557013
2.7000000000000455,12.1174,3.38782,234.1,-25.6,15.3,15.0,-0.5532924972868529,-5.247933737091118,-0.09999781925978546
2.7999999999999545,12.3584,3.53749,233.9,-25.9,15.9,15.0,-0.7775098924868648,-5.487696131957371,-0.09999759462271662
2.8999999999999773,12.6106,3.72726,234.1,-25.7,15.6,14.9,-1.002553123719789,-5.734783205855432,2.6549625691818513e-06
3.0,12.9293,3.95898,234.4,-25.7,15.5,14.9,-1.1939247855251445,-6.046576142738189,2.975566865237589e-06
3.1000000000000227,13.3058,4.17768,234.5,-25.8,15.2,14.9,-1.3793813043879144,-6.4142036111648935,3.3715285800983708e-06
3.2000000000000455,13.7018,4.45941,234.7,-25.7,15.1,14.9,-1.533614160015039,-6.801748185578047,3.80828537471789e-06
3.2999999999999545,14.1445,4.7251,235.8,-27.4,11.5,14.9,-1.6827745218672574,-7.235326253214329,4.321396160245072e-06
3.3999999999999773,14.608,4.99017,237.9,-28.8,0.7,14.9,-1.8118024154841534,-7.690737338141553,4.888992870988318e-06
3.5,15.1201,5.20559,239.4,-29.8,-7.8,14.9,-1.9573628457898897,-8.192904576544482,5.557616576501445e-06
3.6000000000000227,15.6244,5.36746,241.2,-27.3,-14.3,14.9,-2.122200384128279,-8.6846474529906,6.260190170581659e-06
3.7000000000000455,16.1799,5.39963,241.6,-20.4,-21.7,14.9,-2.333613526987274,-9.222084029393038,7.0879915889943135e-06
3.7999999999999545,16.6763,5.36052,241.3,-16.6,-26.0,14.9,-2.5644432415111966,-9.696104551500643,7.879635388174933e-06
3.8999999999999773,17.1774,5.34371,241.4,-15.3,-25.7,14.9,-2.838073415026403,-10.167288979293064,8.729590428302458e-06
4.0,17.6514,5.36154,242.0,-15.8,-25.1,14.9,-3.124036756369108,-10.606674232697987,9.577533928606385e-06
4.100000000000023,18.1492,5.36709,242.3,-15.8,-25.8,14.9,-3.4489028667705925,-11.061236041365648,1.0517781754426636e-05
4.2000000000000455,18.6341,5.4192,241.9,-14.7,-26.8,14.9,-3.762840683017047,-11.50102804514865,1.1472690715219613e-05
4.2999999999999545,19.1135,5.51639,241.8,-14.4,-27.1,14.9,-4.1443695417751325,-11.919467303206533,1.247715595598109e-05
4.399999999999977,19.5587,5.59091,241.8,-14.3,-27.3,14.9,-4.534644043675014,-12.296281515536968,1.3459708647634017e-05
4.5,20.0193,5.69922,241.9,-17.3,-26.2,14.9,-4.974166669273421,-12.672843807687801,1.4524523857861737e-05
4.600000000000023,20.4943,5.77449,241.0,-23.0,-14.5,14.9,-5.4075995304641955,-13.059477321353974,1.5656809702058183e-05
4.7000000000000455,20.9751,5.76406,237.3,-21.1,6.6,14.8,-5.859873272482579,-13.441725179092305,0.10001685149905493
4.7999999999999545,21.4532,5.63756,236.6,-14.2,20.0,14.8,-6.262369430358088,-13.829160591293046,0.10001806339406194
4.899999999999977,21.9701,5.55746,236.4,-10.6,20.4,14.8,-6.647457025938792,-14.258217285427651,0.10001939792711934
5.0,22.4851,5.45372,236.0,-8.5,19.5,14.8,-7.01295051979742,-14.688110236630411,0.10002076570822371
5.100000000000023,23.023,5.36603,236.3,-6.5,21.9,14.8,-7.322279636706201,-15.156961019719196,0.10002220992878241
5.2000000000000455,23.5305,5.32159,236.7,-5.1,22.6,14.8,-7.571188866833209,-15.611895345449472,0.10002359834896035
5.2999999999999545,24.0583,5.26011,237.0,-4.0,22.5,14.8,-7.783092927334137,-16.09940877351983,0.10002506498109076
5.399999999999977,24.5437,5.26097,237.2,-3.5,22.5,14.8,-7.952062559429342,-16.555788297072336,0.10002644224381108
5.5,25.0739,5.27469,237.3,-3.4,22.7,14.8,-8.082129253850864,-17.071613653496073,0.10002796453185381
5.600000000000023,25.5789,5.32099,237.4,-3.3,22.7,14.8,-8.166681104214234,-17.57526948805326,0.10002943921387475
5.7000000000000455,26.1105,5.3797,237.5,-3.3,22.4,14.8,-8.213896196546619,-18.118244001274164,0.1000310183875559
5.7999999999999545,26.6168,5.35776,237.2,-4.7,21.2,14.8,-8.225039510132628,-18.644982343255144,0.10003254886631696
5.899999999999977,27.1601,5.40997,237.5,-10.1,9.8,14.8,-8.24005183977862,-19.20856697656604,0.10003423808613787
6.0,27.6669,5.36702,239.4,-15.9,-10.6,14.8,-8.230520311092196,-19.74041247396054,0.10003584936288945
6.100000000000023,28.1915,5.16865,240.1,-15.1,-22.9,14.8,-8.242290541803463,-20.283766880053335,0.10003756745381587
6.2000000000000455,28.6816,5.01282,239.9,-13.6,-24.3,14.8,-8.291130948272194,-20.78015230692337,0.10003922630061135
6.2999999999999545,29.1958,4.83547,240.8,-14.2,-23.9,14.8,-8.37089749241851,-21.29264983564738,0.10004102077740695
6.399999999999977,29.6621,4.72111,241.3,-14.1,-25.3,14.8,-8.482983815248394,-21.746325872056143,0.10004269833024182
6.5,30.1352,4.60871,241.4,-13.9,-26.7,14.8,-8.631818050499458,-22.196781131501155,0.10004444870309825
6.600000000000023,30.5705,4.50313,241.6,-14.5,-26.8,14.8,-8.805948265937937,-22.600748537409274,0.1000461044877703
6.7000000000000455,31.0023,4.52148,241.9,-15.4,-26.4,14.8,-8.984395469032595,-22.999782505192385,0.10004777929482422
6.7999999999999545,31.4177,4.49565,242.0,-15.7,-26.5,14.8,-9.228820687920045,-23.36258131131911,0.10004944747313083
6.899999999999977,31.8488,4.61052,241.9,-15.9,-26.5,14.8,-9.527235800229196,-23.72528862225062,0.1000512253262924
7.0,32.2515,4.79273,242.0,-16.7,-26.2,14.9,-9.846142430622855,-24.050940064826655,5.292960018543624e-05
7.100000000000023,32.6563,4.94619,241.9,-16.8,-26.1,14.9,-10.22319546575704,-24.359389115377475,5.469382087852637e-05
7.2000000000000455,33.0583,5.16331,241.6,-16.9,-26.0,14.9,-10.611339362474006,-24.658826629524054,5.648004723646238e-05
7.2999999999999545,33.4924,5.29804,242.1,-21.9,-22.7,14.9,-11.050767759229428,-24.97272673928329,5.8449161277174255e-05
7.399999999999977,33.9057,5.44902,240.5,-26.5,-11.2,14.9,-11.484097077833487,-25.26342967607623,6.0360687924365664e-05
7.5,34.3505,5.47504,236.7,-24.7,6.2,14.9,-11.937304304517603,-25.577497887253596,6.244774902786077e-05
7.600000000000023,34.7844,5.43084,235.5,-19.8,19.1,14.9,-12.354649250195326,-25.889643442107115,6.45033556994079e-05
7.7000000000000455,35.286,5.38384,234.9,-17.1,21.3,14.9,-12.75181910793641,-26.279017480681645,6.687868107846384e-05
7.7999999999999545,35.7675,5.32736,234.3,-16.6,19.7,14.9,-13.090762955238638,-26.667077834925283,6.91762231967985e-05
7.899999999999977,36.2762,5.32834,234.6,-15.2,21.3,14.9,-13.405636690704409,-27.092597334830707,7.16246833949441e-05
8.0,36.7515,5.3661,234.8,-14.6,22.2,15.0,-13.677048858468606,-27.498394769326996,-0.09992606253652259
8.100000000000023,37.2907,5.40922,235.0,-14.5,21.8,14.9,-13.93531868650663,-27.97750211210999,7.658103791641224e-05
8.200000000000045,37.8212,5.51049,235.5,-14.7,20.9,14.9,-14.153509096947051,-28.46265443168021,7.920792236237872e-05
8.299999999999955,38.3948,5.58553,236.6,-16.7,12.2,14.9,-14.361879179929034,-28.997920323503187,8.20829689960334e-05
8.399999999999977,38.951,5.6875,237.6,-20.2,1.0,14.9,-14.579425095552903,-29.510886405525635,8.493061257208723e-05
8.5,39.4966,5.73444,239.6,-22.4,-7.7,14.9,-14.76261992661264,-30.02591438822777,8.775412806460992e-05
8.600000000000023,40.0514,5.73545,241.2,-19.7,-18.4,14.9,-14.975208759734786,-30.539338711574523,9.068658702116039e-05
8.700000000000045,40.6673,5.68183,240.9,-16.0,-24.6,14.9,-15.250613476073585,-31.093949276843418,9.401935888941892e-05
8.799999999999955,41.233,5.51306,241.0,-15.0,-25.7,14.9,-15.547796940560893,-31.5860172175053,9.715442672941776e-05
8.899999999999977,41.7882,5.54307,241.5,-15.3,-25.0,14.8,-15.868495410486602,-32.057056464227706,0.10010029613823068
9.0,42.3078,5.59016,241.7,-15.5,-25.4,14.8,-16.195523797630813,-32.486864426459306,0.10010329330214418
9.100000000000023,42.8477,5.66426,241.8,-15.8,-25.6,14.8,-16.56010915396093,-32.92292337644344,0.10010646672806534
9.200000000000045,43.3636,5.73829,241.8,-15.4,-26.3,14.8,-16.94237290551451,-33.32482620253741,0.10010955982405978
9.299999999999955,43.9159,5.81422,241.7,-15.1,-26.9,14.8,-17.364071783441446,-33.748780854025405,0.10011292507799219
9.399999999999977,44.4211,5.90886,241.7,-14.9,-26.6,14.8,-17.81191555247355,-34.10922685002914,0.10011608004771055
9.5,44.9412,5.98577,242.1,-15.5,-26.5,14.8,-18.310485490021197,-34.46210484024262,0.1001193923303827
9.600000000000023,45.4247,6.12277,242.3,-18.1,-26.0,14.8,-18.802569944952538,-34.7752134798303,0.10012252649541864
9.700000000000045,45.8905,6.17014,241.3,-22.4,-16.5,14.8,-19.328015884157537,-35.05140147533395,0.10012561456078828
9.799999999999955,46.3803,6.10366,237.6,-21.5,3.7,14.8,-19.826866216903337,-35.36303245734926,0.10012886908826779
9.899999999999977,46.9152,6.01077,235.8,-17.2,19.6,14.8,-20.323550641688467,-35.72299383623051,0.10013244260504095
10.0,47.4444,5.90129,234.5,-15.7,22.1,14.8,-20.76824033519486,-36.0990957486833,0.10013599626017466
10.100000000000023,48.0197,5.76961,234.0,-14.4,21.4,14.8,-21.229683493177706,-36.517094021010166,0.1001398971438281
10.200000000000045,48.5604,5.70953,234.5,-12.7,22.7,14.8,-21.600029054986532,-36.93944886917029,0.10014357540931584
10.299999999999955,49.125,5.66025,234.8,-12.4,22.4,14.8,-21.945920140649665,-37.39986616928756,0.1001474415820045
10.399999999999977,49.6661,5.65142,234.9,-12.8,21.9,14.8,-22.238842751859274,-37.8596379887279,0.10015117001411511
10.5,50.2294,5.64044,235.2,-12.6,21.8,14.8,-22.549225435243926,-38.33559257859293,0.10015510410658202
10.600000000000023,50.7755,5.70666,235.5,-12.6,21.7,14.8,-22.767663775053876,-38.83730625807439,0.10015891474526306
10.700000000000045,51.352,5.78103,235.2,-13.9,21.1,14.8,-22.958194559947117,-39.386544545476326,0.10016296578094419
10.799999999999955,51.9061,5.7688,235.3,-13.7,20.6,14.8,-23.10639191031001,-39.93137616729287,0.10016688796877737
10.899999999999977,52.4953,5.89766,235.8,-13.5,19.2,14.8,-23.228902309135638,-40.52742485534896,0.10017108944162523
11.0,53.0613,6.00064,237.3,-15.3,8.3,14.8,-23.357925864395526,-41.09406753917429,0.10017518410864845
11.100000000000023,53.6377,5.92508,239.8,-16.8,-10.0,14.8,-23.442503535629747,-41.693155613763466,0.10017938026228279
11.200000000000045,54.1921,5.7774,240.3,-13.7,-23.8,14.8,-23.548936478349567,-42.25688472935068,0.10018347950441786
11.299999999999955,54.7797,5.56917,239.7,-11.8,-26.7,14.8,-23.703662479243373,-42.834184921723555,0.1001879027516015
11.399999999999977,55.3414,5.40325,240.5,-12.1,-25.8,14.8,-23.884978322518222,-43.370310663357216,0.10019220141724006
11.5,55.8953,5.19645,241.0,-12.1,-26.1,14.8,-24.095176777770686,-43.88418631971439,0.1001965064043091
11.600000000000023,56.4047,5.09306,241.1,-12.2,-27.3,14.8,-24.319320456990518,-44.34238872621674,0.10020052753158559
11.700000000000045,56.9212,5.09818,241.2,-12.8,-27.6,14.8,-24.58169298246233,-44.79046855538414,0.10020466262949768
11.799999999999955,57.4033,5.02629,241.4,-13.3,-27.4,14.8,-24.85460100047606,-45.195487543508065,0.10020857936643068
11.899999999999977,57.9027,5.03369,241.5,-13.6,-27.4,14.8,-25.165142560975045,-45.60188519885837,0.10021269141266664
12.0,58.3681,5.08233,241.7,-13.6,-26.7,14.8,-25.496665400724165,-45.96023512702517,0.10021658283793755
12.100000000000023,58.8475,5.12521,241.9,-14.1,-26.8,14.8,-25.883060938641215,-46.307538495063234,0.1002206544727624
12.200000000000045,59.2338,5.25031,242.5,-18.9,-25.7,14.9,-26.27213021650944,-46.5491320186499,0.00022400779635312063
12.299999999999955,59.6895,5.33825,241.2,-23.8,-12.9,14.9,-26.691284839271965,-46.8521451270409,0.00022797096094073765
12.399999999999977,60.1605,5.37874,237.0,-21.9,8.0,14.9,-27.099774012268625,-47.17647674330544,0.0002320876445480735
12.5,60.6973,5.33214,235.7,-17.8,18.9,14.9,-27.516157102995432,-47.569640241785734,0.00023679461335746055
12.600000000000023,61.2065,5.26496,234.6,-15.6,19.4,14.9,-27.87576330807967,-47.959546328692696,0.00024128028008085778
12.700000000000045,61.7785,5.17617,234.5,-12.8,20.5,14.9,-28.275094867659682,-48.39946701311929,0.000246364055062287
12.799999999999955,62.2677,5.0549,235.2,-10.5,21.9,14.9,-28.54776287603156,-48.81040107452259,0.0002507121666202039
12.899999999999977,62.7679,5.04664,235.4,-10.3,21.2,14.9,-28.789090615195597,-49.24936641614228,0.00025517072496761273
13.0,63.2473,5.09202,235.5,-10.3,21.2,14.9,-28.984483063874805,-49.688434651937484,0.0002594624564480341
13.100000000000023,63.7164,5.14104,235.9,-9.9,21.8,14.9,-29.180502583567318,-50.11547853659362,0.0002636963749029775
13.200000000000045,64.2035,5.23211,236.1,-9.5,22.0,14.9,-29.306502095594503,-50.59817252011665,0.0002680840810000973
13.299999999999955,64.718,5.33266,236.2,-9.6,21.7,14.9,-29.399904256510034,-51.12777248989984,0.0002727350131070949
13.399999999999977,65.2086,5.46454,236.2,-10.2,21.0,14.8,-29.45661729025813,-51.648459147807785,0.1002771888788363
13.5,65.7487,5.59803,236.1,-11.2,20.0,14.8,-29.532713655180174,-52.21428872118804,0.10028214434088234
13.600000000000023,66.2499,5.67325,237.4,-14.0,9.4,14.8,-29.54046339375836,-52.769701130850706,0.10028674724420661
13.700000000000045,66.7816,5.57467,239.9,-17.2,-10.1,14.8,-29.546837482693956,-53.35882685172459,0.1002916723702807
13.799999999999955,67.2729,5.23293,240.5,-14.8,-23.9,14.8,-29.57559723433146,-53.891194902001686,0.1002962784052599
13.899999999999977,67.7763,5.05348,239.9,-12.7,-26.0,14.8,-29.669941303450983,-54.40504751735121,0.10030107541564348
14.0,68.2452,4.88323,240.4,-12.8,-24.7,14.8,-29.77038831940999,-54.877294087224556,0.10030558780865384
14.100000000000023,68.7327,4.70434,241.1,-13.0,-25.3,14.8,-29.90705297742268,-55.35278656759706,0.10031033499972786
14.200000000000045,69.1872,4.60465,241.4,-13.6,-26.4,14.8,-30.061693803944216,-55.7830913352795,0.10031480993532504
14.299999999999955,69.6562,4.61607,241.3,-13.6,-26.8,14.8,-30.25177211471913,-56.21268989942372,0.10031947931176077
14.399999999999977,70.0975,4.60705,241.3,-13.5,-27.2,14.8,-30.44212509851819,-56.61136265694806,0.10032391065420754
14.5,70.5568,4.59137,241.5,-13.5,-27.4,14.9,-30.704188730888795,-56.99593511338499,0.00032859282058339545
14.600000000000023,70.9944,4.62705,241.5,-13.5,-27.2,14.9,-30.99149812261551,-57.34417023515192,0.0003331055120057158
14.700000000000045,71.4538,4.64821,241.6,-13.7,-27.6,14.9,-31.330235823741944,-57.69183672636228,0.0003378991574543022
14.799999999999955,71.8794,4.73123,241.7,-16.0,-26.6,14.9,-31.714429457992647,-57.979580164489704,0.00034241194814477183
14.899999999999977,72.3145,4.83466,241.1,-22.4,-16.2,14.9,-32.098094245491964,-58.2773013132276,0.00034704803302965104
15.0,72.753,4.9064,237.4,-23.1,3.3,14.9,-32.47277534261228,-58.58259064032515,0.0003517471343048584
15.100000000000023,73.2437,4.92003,235.9,-19.1,17.5,14.9,-32.850608599616876,-58.94394287484198,0.0003570147491434028
15.200000000000045,73.6725,4.9331,234.7,-18.6,19.1,14.9,-33.217698868423334,-59.24085447392126,0.00036167091572991694
15.299999999999955,74.1537,4.96527,234.0,-17.9,19.0,14.9,-33.52127615226332,-59.62776718659795,0.00036686699641741427
15.399999999999977,74.6095,5.03186,234.4,-16.4,20.6,14.9,-33.77614998440043,-60.01036476002164,0.00037180172103568054
15.5,75.0768,5.08576,234.4,-16.2,21.8,14.9,-34.005806493646816,-60.41860707436517,0.00037687692994659017
15.600000000000023,75.5055,5.17885,234.8,-15.1,22.4,14.9,-34.23251300047525,-60.785021809477016,0.00038157278018147167
15.700000000000045,76.0344,5.28095,235.1,-14.8,21.9,14.9,-34.41660640458542,-61.28495313655389,0.0003873460907986015
15.799999999999955,76.5478,5.30805,235.0,-15.1,21.4,14.9,-34.563199103639825,-61.78626653911883,0.0003929738426524665
15.899999999999977,77.0986,5.48715,235.0,-14.9,21.1,14.8,-34.68863069989892,-62.339861418780345,0.10039903920118753
16.0,77.6301,5.69705,235.2,-14.3,21.1,14.9,-34.78066878989269,-62.88817329099416,0.0004049195231470293
16.100000000000023,78.2468,5.86383,235.1,-14.4,21.1,14.8,-34.92203580298023,-63.50689622622634,0.1004118194933028
16.200000000000045,78.7872,6.0758,235.3,-14.6,20.9,14.8,-34.95660555847118,-64.09252091130746,0.10041786217316861
16.299999999999955,79.3615,6.21333,236.3,-18.7,13.5,14.8,-34.96835037132372,-64.72629644209809,0.10042432086993891
16.399999999999977,79.9137,6.23436,239.1,-22.6,-3.9,14.8,-34.97729820821006,-65.33579408655379,0.10043057816404932
16.5,80.5096,6.02204,240.8,-19.4,-20.7,14.8,-35.042346586640285,-65.96614098849525,0.10043741895990976
16.600000000000023,81.0599,5.83418,240.3,-15.8,-25.3,14.8,-35.113841893062,-66.5423724846836,0.10044379274630444
16.700000000000045,81.6313,5.63271,240.7,-15.4,-24.5,14.8,-35.231989042149486,-67.11936801135758,0.10045048588758476
16.799999999999955,82.1697,5.4521,241.3,-15.8,-24.6,14.8,-35.37721161650983,-67.64686099680803,0.10045686088411898
16.899999999999977,82.729,5.36663,241.5,-15.6,-25.3,14.8,-35.562801237738896,-68.17834076929637,0.10046354986877049
17.0,83.2546,5.30212,241.6,-15.7,-26.1,14.8,-35.768606485631715,-68.66309017653262,0.10046990154829061
17.100000000000023,83.8001,5.33751,241.8,-16.3,-26.2,14.8,-36.021202283625485,-69.14777884113053,0.10047655798503285
17.200000000000045,84.3128,5.34604,241.8,-16.6,-25.8,14.8,-36.30015402505576,-69.5838050486099,0.10048288274235162
17.299999999999955,84.8522,5.35019,242.0,-16.8,-26.0,14.9,-36.6547405033758,-70.0134636868556,0.0004896141209869143
