time,distance(meters),speed(m/s), compass_heading(degrees), pitch(degrees), roll(degrees),height_above_takeoff(meters),North,East,Down
0.0,11.4845,0.552369,250.4,-19.7,-5.0,10.6,0.0,0.0,0.0
0.10000000000000142,11.5458,0.785328,250.4,-22.2,-6.1,10.6,-0.02157160028568369,-0.07042477617262359,1.7934969603200512e-09
0.19999999999999574,11.6201,1.03363,250.2,-23.5,-6.7,10.6,-0.04997844476417399,-0.15630000443739006,3.5814023968683273e-09
0.29999999999999716,11.7151,1.24572,249.9,-23.8,-6.0,10.6,-0.08672994934173199,-0.265913622143641,7.874105666105802e-09
0.3999999999999986,11.8182,1.46895,249.7,-23.6,-4.5,10.6,-0.1317889284630248,-0.38590200486251847,1.3289675609984286e-08
0.5,11.9426,1.68855,249.8,-23.8,-3.1,10.6,-0.18807707335812968,-0.5303972460839781,2.585053213155497e-08
0.6000000000000014,12.0851,1.90441,249.5,-24.2,-1.9,10.6,-0.24779149842852607,-0.6939532779616506,4.337797832043577e-08
0.6999999999999957,12.2656,2.1193,247.9,-22.6,4.4,10.6,-0.31173984245027186,-0.8968776268573854,7.140434388208661e-08
0.7999999999999972,12.4885,2.36758,246.5,-21.5,14.8,10.6,-0.36492277770844356,-1.139863336517075,1.1234694133333001e-07
0.8999999999999986,12.7501,2.67083,246.0,-19.9,21.6,10.6,-0.3787333574787353,-1.4125432770013688,1.686709430737121e-07
1.0,13.035,3.01394,246.0,-18.6,20.8,10.6,-0.36021091916478876,-1.701245468171861,2.386737479043166e-07
1.1000000000000014,13.3643,3.34258,246.2,-17.7,17.7,10.6,-0.31226917497020235,-2.028638187870455,3.307909008654075e-07
1.1999999999999957,13.7063,3.59436,247.1,-16.5,16.2,10.6,-0.2436830215223401,-2.364415271689651,4.4307663936427044e-07
1.2999999999999972,14.0972,3.75942,246.4,-18.8,15.5,10.6,-0.17307414214095104,-2.749977425183248,5.950629830275833e-07
1.3999999999999986,14.4865,4.01686,247.0,-17.4,15.8,10.6,-0.06519000956011034,-3.125424450860718,7.671876781044362e-07
1.5,14.9232,4.26618,247.5,-16.7,15.1,10.6,0.0722792164523645,-3.542624403150554,9.84846689901231e-07
1.6000000000000014,15.36,4.48609,247.4,-17.7,13.1,10.6,0.22573851130029146,-3.9561729218312878,1.2313734619184835e-06
1.6999999999999957,15.8568,4.60272,248.7,-17.1,7.2,10.6,0.3924890918681558,-4.428132393107804,1.5488829021303996e-06
1.7999999999999972,16.3106,4.58052,250.2,-14.5,-4.0,10.6,0.5631860735903689,-4.854534768276061,1.8717863239925414e-06
1.8999999999999986,16.773,4.35534,251.1,-11.6,-17.3,10.6,0.7247199405864233,-5.291872239502006,2.2344313606592614e-06
2.0,17.1917,4.0501,250.7,-7.8,-26.1,10.6,0.8489774812002922,-5.693148210440327,2.596140183719342e-06
2.1000000000000014,17.6183,3.67638,250.6,-6.4,-27.4,10.6,0.961546065854518,-6.105493886331144,2.9923237366280553e-06
2.1999999999999957,17.9752,3.29308,250.8,-5.6,-27.7,10.6,1.016893531842821,-6.460150318175307,3.351364938009027e-06
2.299999999999997,18.3097,3.00209,250.4,-4.4,-28.3,10.6,1.0345727785914698,-6.800806401231394,3.7070001596140045e-06
2.3999999999999986,18.5963,2.85762,250.9,-5.4,-29.1,10.6,1.014290488579024,-7.101044129702876,4.031244001001522e-06
2.5,18.8844,2.73612,251.5,-6.3,-29.2,10.6,0.9805537217684923,-7.405531819280807,4.37322912827387e-06
2.6000000000000014,19.1017,2.64976,251.1,-5.8,-29.2,10.6,0.8837408550152841,-7.650990008911863,4.647150298853209e-06
2.6999999999999957,19.2851,2.65667,250.9,-5.8,-29.7,10.6,0.7376318160674182,-7.871152872613932,4.896249245989193e-06
2.799999999999997,19.4334,2.71387,251.0,-6.5,-29.8,10.6,0.5629396557274797,-8.059273177763226,5.112620151626057e-06
2.8999999999999986,19.5662,2.80713,251.2,-6.9,-29.3,10.6,0.3440647742722349,-8.237799638193,5.324614366808422e-06
3.0,19.6384,2.92999,251.4,-7.2,-29.2,10.6,0.1170441834135122,-8.35281180159732,5.465138053634133e-06
3.1000000000000014,19.7132,3.1489,251.5,-7.5,-29.5,10.6,-0.16419996079449622,-8.47625325105006,5.629522933897624e-06
3.1999999999999957,19.7636,3.34244,251.9,-8.8,-29.6,10.6,-0.4628641676233344,-8.572891056140607,5.774204130448712e-06
3.299999999999997,19.8005,3.50893,251.9,-11.9,-24.6,10.6,-0.8064107346193778,-8.656805804332418,5.922085330622995e-06
3.3999999999999986,19.8193,3.57905,251.6,-16.4,-14.7,10.6,-1.1602658066999738,-8.717214135278182,6.057262058489776e-06
3.5,19.8706,3.57534,250.7,-19.7,-7.0,10.6,-1.5218478824385815,-8.804437596767995,6.25491998029748e-06
3.6000000000000014,19.9429,3.52634,249.3,-21.5,-2.2,10.6,-1.856458122702098,-8.903966036691846,6.481109011025055e-06
3.6999999999999957,20.0497,3.37471,247.6,-20.5,7.0,10.6,-2.1864302399751105,-9.032024093340013,6.765876725767228e-06
3.799999999999997,20.1741,3.17776,246.8,-17.2,17.1,10.6,-2.4748460610044107,-9.17039386820032,7.069131162662501e-06
3.8999999999999986,20.3471,3.02227,246.2,-15.7,20.5,10.6,-2.728609387321589,-9.352278782492036,7.43695032978664e-06
4.0,20.5409,2.85894,245.5,-14.9,21.1,10.6,-2.9329450855100645,-9.550978244727219,7.8218938093233e-06
4.100000000000001,20.7736,2.77167,246.0,-12.8,23.0,10.6,-3.1052231266258197,-9.786258525016365,8.260391711090165e-06
4.199999999999996,21.0381,2.73005,246.0,-12.4,23.2,10.6,-3.2020478354149073,-10.051845851902613,8.720782777693614e-06
4.299999999999997,21.3162,2.79873,246.4,-12.2,22.0,10.6,-3.266920196361834,-10.330610657416223,9.199368413925768e-06
4.399999999999999,21.6018,2.92408,246.6,-12.7,20.7,10.6,-3.2961834878469807,-10.616779425323505,9.683045990360739e-06
4.5,21.9221,3.10149,246.8,-12.7,19.7,10.6,-3.2987479821917463,-10.937686590163576,1.0226936294710498e-05
4.600000000000001,22.2455,3.29237,247.3,-12.8,18.2,10.6,-3.2663519295494616,-11.261715315144933,1.0773243094952534e-05
4.699999999999996,22.6369,3.43835,248.0,-13.8,11.8,10.6,-3.232367430273637,-11.653943639739538,1.1460017999009864e-05
4.799999999999997,22.9771,3.48416,249.1,-14.2,1.5,10.6,-3.1539165438710723,-11.994555870592318,1.2051209844488042e-05
4.899999999999999,23.3295,3.40641,250.2,-12.3,-7.7,10.6,-3.065783628947033,-12.34701868009013,1.267962708406678e-05
5.0,23.6542,3.24161,251.1,-9.6,-17.9,10.6,-2.996929300899048,-12.671709846531394,1.3283366741001501e-05
5.100000000000001,23.9783,2.90554,251.0,-7.6,-26.0,10.6,-2.9405090785986774,-12.995746155537626,1.3907798935397508e-05
5.199999999999996,24.2504,2.62715,250.7,-6.2,-27.9,10.6,-2.93285735778117,-13.268319241445628,1.4464607580588762e-05
5.299999999999997,24.487,2.41101,250.9,-6.1,-27.8,10.6,-2.960086927794515,-13.505749187066854,1.4975403400452336e-05
5.399999999999999,24.7,2.27061,251.3,-6.7,-28.5,10.6,-3.0123676975311224,-13.719821650706525,1.5456887626275062e-05
5.5,24.9316,2.25878,251.4,-7.1,-28.7,10.6,-3.0321716550925575,-13.95208520413452,1.596945185466936e-05
5.600000000000001,25.1359,2.27255,251.6,-7.5,-28.9,10.6,-3.14089335650189,-14.15763304356018,1.647526605275118e-05
5.699999999999996,25.3313,2.39082,251.8,-7.9,-29.1,10.6,-3.2964850726899724,-14.353774177411738,1.6991038367164535e-05
5.799999999999997,25.4897,2.52757,251.8,-7.8,-29.1,10.6,-3.4810762134243336,-14.511606655338928,1.744722787333508e-05
5.899999999999999,25.6652,2.67768,251.8,-7.9,-29.3,10.6,-3.717407878894629,-14.684434317843051,1.7975589014618265e-05
6.0,25.7728,2.87851,251.9,-8.3,-29.5,10.6,-3.9696974630279622,-14.786578489564189,1.8363950024191666e-05
6.100000000000001,25.8636,3.10269,252.0,-8.6,-29.6,10.6,-4.267181781852058,-14.867778488197736,1.8744768900846864e-05
6.199999999999996,25.9373,3.34647,252.0,-9.4,-29.4,10.6,-4.577588445535631,-14.92770778185006,1.9101086532025136e-05
6.299999999999997,26.0096,3.54934,252.4,-13.8,-24.9,10.6,-4.928325434254374,-14.98013003621455,1.948686903441299e-05
6.399999999999999,26.0568,3.65621,252.0,-19.2,-15.1,10.6,-5.292406609620564,-15.001576973455123,1.9829954528205462e-05
6.5,26.1434,3.62736,250.3,-22.6,-4.1,10.6,-5.666148686253527,-15.056653106769996,2.028173444124093e-05
6.600000000000001,26.2515,3.47294,248.0,-22.3,7.0,10.6,-6.005273472157512,-15.131835298765026,2.0771035956990147e-05
6.699999999999996,26.3967,3.22518,246.6,-20.3,16.4,10.5,-6.328330285139924,-15.242269255296598,0.10002134746226199
6.799999999999997,26.5281,2.99395,245.8,-18.3,20.5,10.6,-6.608746076948371,-15.340480747741942,2.1867915339868205e-05
6.899999999999999,26.7235,2.82824,245.4,-17.0,21.2,10.6,-6.851892379622221,-15.505845306991214,2.2525129045991577e-05
7.0,26.9356,2.7119,245.4,-15.9,22.1,10.6,-7.045944405254459,-15.69339505580017,2.3195654489605033e-05
7.100000000000001,27.1865,2.67023,245.4,-15.3,22.6,10.5,-7.209685729061839,-15.923644456671113,0.10002394906599132
7.199999999999996,27.4378,2.70849,245.5,-14.8,22.4,10.5,-7.361045420223428,-16.15555512519852,0.10002470539390806
7.299999999999997,27.7213,2.83107,245.9,-14.6,21.8,10.5,-7.4176715390964905,-16.434180690274495,0.1000254826329785
7.399999999999999,28.0157,3.00338,246.2,-14.5,21.2,10.5,-7.440598217915959,-16.729051848681394,0.1000262759254329
7.5,28.35,3.18924,246.3,-15.0,20.7,10.5,-7.437527481843673,-17.068301124787737,0.10002716901285469
7.600000000000001,28.7026,3.42726,246.6,-16.1,18.8,10.5,-7.405362324746465,-17.430195730130947,0.10002811047672111
7.699999999999996,29.051,3.65153,247.5,-17.7,12.0,10.5,-7.332092525408101,-17.793394265953214,0.10002902681159398
7.799999999999997,29.3998,3.76601,248.9,-18.9,2.1,10.5,-7.247427942875813,-18.15811824271206,0.10002995683106519
7.899999999999999,29.7793,3.75031,250.4,-17.3,-7.2,10.5,-7.157266081765661,-18.55403139881016,0.10003099343161903
8.0,30.1326,3.60987,251.5,-13.6,-16.4,10.5,-7.08570938869467,-18.92032668880755,0.10003198701155336
8.100000000000001,30.4914,3.34028,251.6,-10.0,-24.9,10.5,-7.02086022572218,-19.290959763385185,0.10003302489529009
8.199999999999996,30.8122,3.06613,251.2,-7.7,-28.2,10.5,-7.007657931682231,-19.616439631479196,0.1000340023143611
8.299999999999997,31.131,2.86246,251.1,-6.7,-28.2,10.5,-7.031330147726408,-19.93538236043436,0.10003501533936854
8.399999999999999,31.4133,2.72408,251.5,-7.3,-28.4,10.5,-7.090005401917306,-20.213114431601802,0.10003595568827883
8.5,31.7028,2.71667,251.6,-7.4,-28.5,10.5,-7.147820813338086,-20.498233312969095,0.1000369286440348
8.600000000000001,31.946,2.71294,251.5,-7.5,-29.1,10.5,-7.277715710859394,-20.727541722995774,0.10003781686671331
8.699999999999996,32.1803,2.78168,251.7,-7.9,-29.1,10.5,-7.451111960383607,-20.941727207393928,0.10003871580758616
8.799999999999997,32.3831,2.87635,251.9,-8.4,-29.1,10.5,-7.651340145178721,-21.11975766537573,0.10003954190766828
8.899999999999999,32.5503,3.01741,252.0,-8.2,-29.3,10.5,-7.899655284681775,-21.2539045609226,0.10004028851155233
9.0,32.7198,3.19308,251.8,-8.4,-28.9,10.6,-8.167866031836466,-21.38573021636631,4.10686795713211e-05
9.100000000000001,32.8893,3.33098,252.1,-11.3,-24.6,10.5,-8.478142674173775,-21.50889884750201,0.10004188860856189
9.199999999999996,33.0498,3.41419,251.7,-14.9,-15.3,10.5,-8.787418957187898,-21.620539890703444,0.1000426854624612
9.299999999999997,33.2176,3.42465,250.9,-16.8,-8.3,10.5,-9.131334482808978,-21.73084073392353,0.10004354618637379
9.399999999999999,33.3945,3.4134,249.8,-18.0,-4.4,10.5,-9.438769370960046,-21.854204455174788,0.10004441553639065
9.5,33.5918,3.35467,248.5,-18.7,1.9,10.5,-9.74729104313067,-21.995786073028363,0.10004536726857882
9.600000000000001,33.7948,3.22336,247.3,-17.8,10.7,10.5,-10.02243943483786,-22.14768511245131,0.1000463206304083
9.699999999999996,34.0261,3.0669,246.5,-16.3,17.4,10.5,-10.282881356649927,-22.330036363100042,0.10004737261214647
9.799999999999997,34.2434,2.91772,245.9,-15.3,21.2,10.5,-10.49324444122913,-22.507492246519107,0.1000483398025036
9.899999999999999,34.4961,2.82344,245.7,-14.7,22.6,10.5,-10.643181066596421,-22.733809032564885,0.10004939094826426
10.0,34.7623,2.8375,245.5,-14.5,22.7,10.5,-10.75977687932562,-22.981127303823715,0.10005047305086201
10.100000000000001,35.0748,2.93373,245.8,-14.2,21.3,10.5,-10.868035482822979,-23.277749544242436,0.10005173072146079
10.199999999999996,35.4072,3.0576,246.2,-14.0,20.3,10.5,-10.95282542133231,-23.600012711833052,0.10005306064184616
10.299999999999997,35.731,3.22284,246.6,-13.6,19.6,10.5,-10.967898714884152,-23.92900765959874,0.10005431030389644
10.399999999999999,36.0544,3.40761,247.2,-13.3,17.4,10.5,-10.952936514027273,-24.26411208219969,0.10005554930862548
10.5,36.4079,3.54695,247.9,-14.1,12.1,10.5,-10.912291853771357,-24.635373462104962,0.10005690178726301
10.600000000000001,36.7656,3.59632,249.0,-14.1,3.2,10.5,-10.873075339445835,-25.01033492432296,0.10005829229838525
10.699999999999996,37.1131,3.55727,250.1,-12.4,-5.9,10.5,-10.805101618589463,-25.380423959026427,0.10005963731761014
10.799999999999997,37.4479,3.40787,251.1,-10.8,-16.0,10.5,-10.748053686791225,-25.734788594916967,0.10006095874738108
10.899999999999999,37.7987,3.18109,251.3,-8.9,-23.6,10.5,-10.709134047709,-26.101372342235706,0.10006238209039964
11.0,38.1113,2.94994,251.2,-7.6,-27.0,10.5,-10.654471838470556,-26.43173793417774,0.10006364900094944
11.100000000000001,38.4038,2.77328,251.3,-7.3,-27.7,10.5,-10.680394329478837,-26.725381583390973,0.10006491359297254
11.199999999999996,38.6626,2.62565,251.6,-7.6,-28.2,10.5,-10.739225311413596,-26.97801504669976,0.10006607512689669
11.299999999999997,38.914,2.58879,251.8,-8.2,-28.4,10.5,-10.83589540275458,-27.215558039731842,0.10006724755508856
11.399999999999999,39.1454,2.59717,251.9,-8.5,-28.3,10.5,-10.961898147032354,-27.42672318417099,0.10006836725353807
11.5,39.3773,2.68999,252.0,-8.8,-28.0,10.6,-11.103626388455812,-27.635028782482816,6.951123287812777e-05
11.600000000000001,39.5938,2.7918,252.0,-8.9,-27.9,10.6,-11.296862618272574,-27.816612506204827,7.064099714870764e-05
11.699999999999996,39.8066,2.92438,252.0,-9.0,-27.6,10.6,-11.53283466433634,-27.984606437164075,7.179968993842323e-05
11.799999999999997,40.0012,3.07395,252.0,-9.5,-27.0,10.6,-11.78598517158975,-28.129204710128203,7.289885688965825e-05
11.899999999999999,40.2044,3.19711,251.9,-10.3,-24.8,10.6,-12.081305831645658,-28.271993155039443,7.408466428238114e-05
12.0,40.3852,3.29708,251.6,-13.1,-18.0,10.6,-12.375275689473849,-28.390221251986254,7.517482542773735e-05
12.100000000000001,40.5741,3.31949,250.8,-16.9,-9.3,10.6,-12.691144035552693,-28.50988898306262,7.633103206217129e-05
12.199999999999996,40.7613,3.25886,249.2,-19.5,-0.5,10.6,-12.985693231845485,-28.631091679752828,7.746940030095573e-05
12.299999999999997,40.9426,3.15022,247.4,-20.2,9.5,10.6,-13.27429791703948,-28.745974806670667,7.858106989644398e-05
12.399999999999999,41.159,3.03194,246.1,-19.4,17.4,10.6,-13.517654949960562,-28.90740106239328,7.982323043886907e-05
12.5,41.4063,2.95303,245.4,-18.7,20.8,10.6,-13.727330492621254,-29.10869962403672,8.118720920791134e-05
12.600000000000001,41.6662,2.94856,245.0,-18.3,21.9,10.6,-13.901447849400892,-29.331881712339843,8.258582669906644e-05
12.699999999999996,41.9733,2.9834,245.3,-17.4,22.0,10.6,-14.099054974252102,-29.597490824301502,8.424785735972051e-05
12.799999999999997,42.2775,3.11265,245.5,-17.3,21.6,10.6,-14.214721502896037,-29.881917087159195,8.583035582621079e-05
12.899999999999999,42.6133,3.27283,245.7,-17.2,20.8,10.6,-14.291975623118208,-30.20940024195693,8.754472829597404e-05
13.0,42.9454,3.50003,246.0,-16.8,20.6,10.6,-14.322861029948285,-30.545619906100832,8.921516028603804e-05
13.100000000000001,43.3079,3.73104,246.1,-16.7,19.9,10.5,-14.310993674309369,-30.92466684627238,0.10009101329867409
13.199999999999996,43.6951,3.97013,246.5,-16.6,18.6,10.5,-14.291049419885852,-31.331100259566146,0.10009294998942142
13.299999999999997,44.0894,4.18069,247.4,-17.6,13.9,10.5,-14.212639286209106,-31.75958511166222,0.10009489100775237
13.399999999999999,44.4715,4.31021,248.7,-18.1,3.9,10.5,-14.121352599288489,-32.17802352897418,0.10009678287971457
13.5,44.875,4.27774,250.2,-15.1,-6.8,10.5,-14.022477129741826,-32.619670547495595,0.10009880450709296
13.600000000000001,45.2691,4.11701,251.2,-11.2,-16.9,10.5,-13.924365235562131,-33.05036620120517,0.10010080507476626
13.699999999999996,45.6723,3.87396,251.4,-8.4,-24.8,10.5,-13.869860307867249,-33.47921767513317,0.1001029194308547
13.799999999999997,46.0342,3.5927,250.9,-6.6,-28.2,10.5,-13.848298623353482,-33.85710040998793,0.10010486518550188
13.899999999999999,46.3861,3.32272,250.9,-6.0,-28.6,10.5,-13.859818758628315,-34.21667372123142,0.10010680737424149
14.0,46.7061,3.14999,251.3,-6.7,-28.8,10.5,-13.88536128830092,-34.53993348868829,0.1001086040975494
14.100000000000001,47.029,3.08492,251.6,-7.4,-29.0,10.6,-13.926372534434407,-34.86260199877112,0.0001104473102033765
14.199999999999996,47.3221,3.00076,251.7,-7.8,-28.9,10.6,-14.019618886591555,-35.142362083417304,0.00011218479343355625
14.299999999999997,47.6172,3.04424,251.9,-8.6,-28.8,10.6,-14.181478463341039,-35.40789099647244,0.00011401177002579033
14.399999999999999,47.8876,3.09826,252.0,-9.1,-28.6,10.6,-14.389050191217283,-35.636808656538804,0.00011575175315936548
14.5,48.1561,3.18185,252.2,-9.6,-28.4,10.6,-14.625779697477466,-35.85612298476244,0.0001175201885876831
14.600000000000001,48.4,3.31261,252.3,-10.0,-27.9,10.6,-14.882131560376004,-36.04454603471538,0.00011917650324289042
14.699999999999996,48.646,3.43241,252.3,-10.6,-27.0,10.6,-15.182262355782836,-36.22306032803264,0.00012089693343408925
14.799999999999997,48.8694,3.57949,252.2,-12.0,-24.5,10.6,-15.487033865452807,-36.37569309806235,0.00012250108932043702
14.899999999999999,49.0735,3.67796,252.2,-16.1,-18.2,10.6,-15.829172476297654,-36.49701843412126,0.00012403595235088716
15.0,49.3007,3.76118,251.5,-21.3,-10.7,10.6,-16.156338769016216,-36.64445055737529,0.00012570378406007165
15.100000000000001,49.5593,3.77321,249.9,-24.4,-3.2,10.6,-16.502206151308997,-36.81771849732756,0.0001275903429824865
15.199999999999996,49.8204,3.77515,248.0,-26.3,4.3,10.6,-16.813530325272723,-37.00165511278897,0.0001294690842019719
15.299999999999997,50.0732,3.82502,246.5,-26.8,11.1,10.6,-17.098123237358326,-37.18333110132223,0.00013128458656996855
15.399999999999999,50.3864,3.87351,245.8,-26.0,14.3,10.6,-17.362636382245576,-37.433071167057705,0.00013346128674385227
15.5,50.7593,3.90361,245.5,-25.5,15.1,10.6,-17.62387975851866,-37.74535387594263,0.00013601873972746148
15.600000000000001,51.1389,4.02303,245.2,-25.9,15.5,10.6,-17.84744615226865,-38.075354140153934,0.00013860284833100422
15.699999999999996,51.5991,4.16411,245.3,-25.9,15.8,10.6,-18.107794832776488,-38.478439985078595,0.00014175478851186085
15.799999999999997,52.0214,4.35529,245.8,-25.7,15.7,10.5,-18.264846030261154,-38.87275381949074,0.10014459379838492
15.899999999999999,52.4874,4.55719,246.0,-25.9,15.1,10.6,-18.385403944884544,-39.32399443150527,0.00014770400783348236
16.0,52.9541,4.78733,246.2,-26.1,14.3,10.5,-18.476214706461143,-39.78484477292295,0.10015082442750689
16.1,53.4919,4.96679,246.4,-25.8,13.8,10.6,-18.540739420166073,-40.32799946413151,0.00015441999637388903
16.199999999999996,53.9853,5.17333,247.5,-24.8,10.8,10.6,-18.584112454196266,-40.83087628976192,0.0001577425196153115
16.299999999999997,54.5024,5.2841,249.6,-22.0,0.3,10.6,-18.610113340484375,-41.36336905658157,0.00016124595252087204
16.4,55.0085,5.27593,250.8,-18.1,-9.8,10.6,-18.63904858528705,-41.883302914622774,0.00016472091293984192
16.5,55.5541,5.19182,251.3,-14.8,-16.8,10.6,-18.68937213319886,-42.43796580417867,0.00016853081387679936
16.6,56.0669,5.05695,251.6,-12.4,-21.2,10.6,-18.751384069964953,-42.954791569727135,0.000172170217275891
16.699999999999996,56.5997,4.89867,251.6,-10.9,-23.5,10.6,-18.857084538443345,-43.479785237753326,0.00017603666426424525
16.799999999999997,57.0865,4.7725,251.6,-10.5,-24.0,10.6,-18.978767346277607,-43.95213380779177,0.00017963327229963966
16.9,57.5754,4.70404,251.8,-10.9,-23.3,10.6,-19.125868101183187,-44.41943830493882,0.00018330903171204227
17.0,58.0491,4.65267,251.7,-11.1,-22.8,10.6,-19.264310360233615,-44.87334377973629,0.00018690018060851799
17.1,58.5258,4.60804,251.7,-11.4,-22.0,10.6,-19.455502885432786,-45.31503041089715,0.00019060268904524946
17.199999999999996,58.956,4.53457,251.7,-11.5,-21.6,10.6,-19.65990957476329,-45.7043621455033,0.00019400764493404665
17.299999999999997,59.3783,4.49806,251.9,-11.5,-21.9,10.6,-19.899489434505313,-46.07489574473228,0.00019741667231443216
