time,distance(meters),speed(m/s), compass_heading(degrees), pitch(degrees), roll(degrees),height_above_takeoff(meters),North,East,Down
0.0,7.09613,0.540225,240.6,-12.3,12.2,10.1,0.0,0.0,0.0
0.09999999999999432,7.09389,1.02834,239.3,-15.6,21.6,10.1,0.06517820807836365,-0.048138868820830336,7.349158052949445e-10
0.19999999999998863,7.11368,1.54189,238.7,-17.5,23.6,10.2,0.1505114270504362,-0.13780253458661462,-0.0999999973603227
0.29999999999998295,7.15819,2.00954,238.2,-19.2,21.0,10.2,0.2657666952191245,-0.2766503698574533,-0.0999999893567681
0.4000000000000057,7.22568,2.4003,238.3,-19.6,18.0,10.1,0.38745229119148084,-0.4423815937827844,2.7041298727992213e-08
0.5,7.33059,2.60043,239.0,-19.0,17.7,10.1,0.506602319641048,-0.6446425938830739,5.301950942171452e-08
0.5999999999999943,7.446,2.97277,239.3,-19.3,20.0,10.1,0.6510803800101492,-0.8670731788304439,9.194704547743626e-08
0.6999999999999886,7.59444,3.35306,239.6,-19.6,20.9,10.1,0.8218790223565168,-1.132670982257983,1.5402333469749507e-07
0.799999999999983,7.76831,3.73068,239.6,-19.7,20.6,10.1,1.0063828304754487,-1.4221231697374397,2.3770323820393457e-07
0.9000000000000057,7.97985,4.10958,239.7,-19.9,19.7,10.1,1.2297377828144525,-1.7576947011170376,3.598865043752397e-07
1.0,8.22568,4.40648,240.2,-19.2,17.4,10.1,1.447463728221389,-2.1125012481500915,5.138113929881172e-07
1.0999999999999943,8.52123,4.6125,240.7,-17.8,14.6,10.1,1.6851955192136896,-2.5125994774520337,7.166354331067382e-07
1.1999999999999886,8.833,4.81488,241.0,-16.7,12.8,10.1,1.9177300988648451,-2.9128542591778688,9.533570214381726e-07
1.299999999999983,9.20298,4.97149,241.1,-16.7,12.0,10.1,2.1705672632572934,-3.3651527049888035,1.2571126081217798e-06
1.4000000000000057,9.57089,5.14539,241.2,-17.6,12.3,10.1,2.410964727903944,-3.7986929510686425,1.5865900859779458e-06
1.5,9.98575,5.3388,241.2,-17.8,12.3,10.1,2.6672477342814114,-4.271559494112385,1.9892114262454186e-06
1.5999999999999943,10.4066,5.46407,241.4,-16.7,11.8,10.1,2.917785777734308,-4.738269704846843,2.4286548274687902e-06
1.6999999999999886,10.8725,5.60873,241.2,-15.9,11.2,10.1,3.1872662504512164,-5.242991685623216,2.9514867665447753e-06
1.799999999999983,11.3488,5.685,241.5,-14.7,9.5,10.1,3.444257184479437,-5.747481688795419,3.520266667722538e-06
1.9000000000000057,11.8453,5.55018,242.4,-12.6,2.8,10.1,3.714644493098835,-6.265079465906918,4.15963306954481e-06
2.0,12.3127,5.2854,243.6,-9.1,-10.6,10.1,3.9488105309775983,-6.744565193225325,4.788922525866823e-06
2.0999999999999943,12.7884,4.95457,243.4,-5.2,-22.0,10.1,4.157558429521785,-7.2268546268050295,5.450609758206326e-06
2.1999999999999886,13.2399,4.54157,243.3,-4.2,-25.7,10.1,4.322880998353188,-7.681170031741329,6.0915175714715275e-06
2.299999999999983,13.683,4.0834,242.5,-2.4,-27.2,10.1,4.453846664070371,-8.125046740797966,6.731008785010317e-06
2.4000000000000057,14.0622,3.66671,242.0,-1.5,-29.0,10.1,4.538793406740433,-8.504256917734802,7.283921083178768e-06
2.5,14.4138,3.36414,241.2,-0.2,-29.4,10.1,4.58792167468852,-8.855971340452875,7.797898884831511e-06
2.5999999999999943,14.7603,2.96558,241.4,-0.2,-28.5,10.1,4.640078707251765,-9.202398154250584,8.325463817904222e-06
2.6999999999999886,15.0622,2.6915,242.6,-1.9,-28.3,10.1,4.617342073644794,-9.505275506177638,8.75276358458521e-06
2.799999999999983,15.3109,2.50075,243.9,-4.3,-28.7,10.1,4.5502795668924,-9.755435246227979,9.081643493225044e-06
2.9000000000000057,15.5346,2.42573,244.2,-5.1,-29.6,10.1,4.433802049332197,-9.980506810678957,9.348410663356788e-06
3.0,15.6999,2.44217,244.2,-5.2,-29.5,10.1,4.277452786427302,-10.145884449040508,9.501663986055675e-06
3.0999999999999943,15.8571,2.52217,243.8,-4.8,-28.9,10.0,4.0808814034236605,-10.30083949053225,0.10000962012214543
3.1999999999999886,15.9754,2.69761,243.5,-4.8,-29.3,10.0,3.8559540954547273,-10.413621747713528,0.10000966242656917
3.299999999999983,16.0705,2.88893,243.3,-4.5,-29.3,10.0,3.580793022643345,-10.497549863623926,0.10000963770894211
3.4000000000000057,16.1374,3.15371,244.0,-5.7,-29.0,10.0,3.2914918359419376,-10.54756245124221,0.10000956346776246
3.5,16.1399,3.45355,244.3,-6.5,-29.1,10.0,2.9561945283993944,-10.523773805116765,0.10000936008178529
3.5999999999999943,16.1729,3.78099,244.0,-5.9,-29.0,10.0,2.603300938637608,-10.521582377533656,0.10000920267353752
3.6999999999999886,16.1969,4.06935,243.7,-5.9,-29.0,10.0,2.1977349265615764,-10.495491274007215,0.10000900646676847
3.799999999999983,16.2119,4.41675,244.1,-6.7,-28.4,10.1,1.7840064727179596,-10.44848089990783,8.799704591555546e-06
3.9000000000000057,16.2017,4.74063,244.1,-6.9,-27.0,10.1,1.326061622547976,-10.356471754286808,8.537873273262164e-06
4.0,16.2096,5.02362,243.9,-7.1,-25.7,10.1,0.8592090031513914,-10.267072538183708,8.31370621801053e-06
4.099999999999994,16.223,5.17953,244.3,-9.1,-23.1,10.1,0.34782076285219776,-10.157569154352073,8.0890414477508e-06
4.199999999999989,16.253,5.29203,244.3,-11.8,-18.3,10.1,-0.15415150210255535,-10.05034154478971,7.912239781290853e-06
4.299999999999983,16.3035,5.24219,243.4,-14.0,-9.3,10.1,-0.6926430267694123,-9.935750073306506,7.768736844493418e-06
4.400000000000006,16.3848,5.10221,242.3,-17.1,0.2,10.1,-1.1936956729541262,-9.848034780072018,7.706520925077065e-06
4.5,16.5014,4.79395,240.7,-19.0,8.7,10.1,-1.7007372537495364,-9.779322065654458,7.716441405403174e-06
4.599999999999994,16.6406,4.33934,239.7,-16.4,18.7,10.1,-2.152889571898501,-9.742644283765117,7.797758737493332e-06
4.699999999999989,16.8043,3.91363,240.4,-11.7,25.3,10.1,-2.594527494857469,-9.725478821821184,7.936024732480007e-06
4.799999999999983,16.9841,3.47304,240.0,-10.1,26.5,10.1,-2.9585368073666545,-9.752968284369029,8.137580496558883e-06
4.900000000000006,17.1841,3.05655,239.5,-8.9,26.8,10.1,-3.2892085797185704,-9.813147583127774,8.39214036418845e-06
5.0,17.3715,2.62709,240.1,-7.0,28.5,10.1,-3.5394532243789056,-9.896155474674766,8.654646402428412e-06
5.099999999999994,17.5567,2.34793,240.2,-6.4,28.3,10.1,-3.723555229351436,-10.009413163922394,8.93664007262096e-06
5.199999999999989,17.7333,2.132,240.3,-5.8,27.1,10.1,-3.8443875512849224,-10.145566302131362,9.223878566055888e-06
5.299999999999983,17.9526,1.97343,240.5,-5.5,25.6,10.1,-4.009503698728253,-10.30645166584279,9.583987677475037e-06
5.400000000000006,18.1557,1.96131,240.3,-6.3,25.2,10.1,-4.115802961698085,-10.48015937004904,9.934124032717762e-06
5.5,18.3621,2.07185,240.7,-6.2,24.3,10.1,-4.172794858547391,-10.683882052879609,1.0309731844904135e-05
5.599999999999994,18.5995,2.21264,240.9,-6.5,22.1,10.1,-4.285713317623956,-10.892897191834216,1.0737596171983554e-05
5.699999999999989,18.7898,2.42177,240.9,-7.0,20.7,10.1,-4.248296232541993,-11.127814702611492,1.111870200043441e-05
5.799999999999983,18.9653,2.64977,241.0,-6.8,20.6,10.1,-4.173077277523374,-11.364240460533878,1.1483862624839247e-05
5.900000000000006,19.1447,2.8887,240.8,-7.1,21.0,10.1,-4.053758642088674,-11.625132965990785,1.1876740413807596e-05
6.0,19.3116,3.17761,240.8,-7.2,20.9,10.1,-3.856277549519498,-11.906501875620094,1.2271975038169458e-05
6.099999999999994,19.4958,3.46734,240.9,-7.3,20.3,10.1,-3.663037576705863,-12.20002877335638,1.2712767776701384e-05
6.199999999999989,19.6732,3.72832,240.6,-8.3,19.1,10.1,-3.4498437919493674,-12.48988035218824,1.315266257639891e-05
6.299999999999983,19.8647,3.96208,240.5,-8.6,17.7,10.1,-3.1994209523247106,-12.805168559105736,1.364730335473574e-05
6.400000000000006,20.0558,4.17511,241.2,-7.9,16.8,10.1,-2.918585554766512,-13.125260336957194,1.4161453812056024e-05
6.5,20.266,4.34579,241.5,-8.3,16.1,10.1,-2.631282575008672,-13.460549569257255,1.4733847781611686e-05
6.599999999999994,20.4737,4.46223,241.6,-9.0,14.8,10.1,-2.3410683736050046,-13.786435814603557,1.5316465443504512e-05
6.699999999999989,20.7006,4.57513,241.8,-9.1,12.1,10.1,-2.022215047948284,-14.1344423512543,1.5967274838879497e-05
6.799999999999983,20.9285,4.64384,242.1,-9.5,9.4,10.1,-1.7152533202996714,-14.471253149928275,1.6632190094068022e-05
6.900000000000006,21.181,4.59016,242.5,-11.2,4.7,10.1,-1.380322105297692,-14.834052335262605,1.738365291037436e-05
7.0,21.4188,4.36089,243.8,-10.7,-7.2,10.1,-1.100893843868067,-15.158208754102606,1.8088166783725157e-05
7.099999999999994,21.6518,3.9556,244.3,-7.9,-21.7,10.1,-0.8571779458960194,-15.462398469948365,1.878163644752906e-05
7.199999999999989,21.8823,3.47523,243.6,-5.5,-27.6,10.1,-0.648502609582144,-15.751043280107146,1.946180311701573e-05
7.299999999999983,22.1353,2.93465,243.4,-4.3,-26.3,10.1,-0.44534049702369155,-16.058199982341645,2.0209983856239733e-05
7.400000000000006,22.3593,2.457,244.0,-5.2,-27.2,10.1,-0.29544230595802434,-16.321075966956933,2.0868070557150675e-05
7.5,22.5747,2.08147,244.6,-6.3,-28.8,10.0,-0.1834673713042334,-16.56532912071242,0.10002149205779046
7.599999999999994,22.7552,1.6721,244.6,-6.5,-29.1,10.0,-0.1297675738226368,-16.76093733981712,0.10002200214537214
7.699999999999989,22.9571,1.51941,244.3,-6.4,-29.0,10.0,-0.08259560850896693,-16.976838777215676,0.10002257081396325
7.799999999999983,23.0967,1.45691,244.4,-6.8,-28.6,10.0,-0.1340377444168808,-17.10915426372104,0.10002292509081213
7.900000000000006,23.2231,1.50783,244.1,-6.5,-27.9,10.0,-0.23798526517001786,-17.217300900609025,0.10002321891664503
8.0,23.3236,1.71115,243.8,-6.6,-28.7,10.0,-0.37587932395918355,-17.291560663222242,0.10002342662163025
8.099999999999994,23.3795,1.99548,243.6,-6.8,-28.9,10.0,-0.5898875862095962,-17.302982059904892,0.10002347349286494
8.199999999999989,23.4469,2.31158,243.8,-7.1,-28.8,10.1,-0.8039149742427629,-17.324209533833077,2.3555051146484374e-05
8.299999999999983,23.5069,2.65289,244.3,-7.7,-28.7,10.1,-1.0637793867323597,-17.32508250555136,2.359597424078652e-05
8.400000000000006,23.5501,3.02179,244.3,-7.7,-28.9,10.1,-1.3413365764563783,-17.301328341989553,2.358395187262996e-05
8.5,23.5826,3.3895,244.1,-7.5,-29.2,10.1,-1.6659252655547316,-17.250701830138013,2.3524077893632978e-05
8.599999999999994,23.5943,3.73289,244.2,-7.9,-28.8,10.1,-2.0190888181227074,-17.165533564405845,2.339588069744103e-05
8.699999999999989,23.6153,4.06242,244.6,-8.7,-27.9,10.1,-2.413479078702606,-17.071747095087787,2.3282927811951737e-05
8.799999999999983,23.6321,4.42295,244.6,-8.6,-28.0,10.1,-2.8183613338488476,-16.962942618235644,2.315920723905407e-05
8.900000000000006,23.6503,4.75889,244.6,-8.8,-28.9,10.1,-3.275743208799351,-16.829566427185906,2.3025278502064594e-05
9.0,23.6681,5.09454,245.0,-9.2,-28.1,10.1,-3.7515741830342386,-16.67881814861687,2.2892449328848485e-05
9.099999999999994,23.6983,5.41093,245.1,-9.1,-26.7,10.0,-4.267155261950631,-16.51427547590389,0.10002279052326912
9.199999999999989,23.7357,5.66407,245.1,-9.3,-26.4,10.1,-4.781729461250716,-16.344698655153813,2.2721736453235053e-05
9.299999999999983,23.7877,5.81165,244.4,-9.7,-23.5,10.0,-5.343435052741279,-16.156281083088697,0.10002268789812829
9.400000000000006,23.8555,5.79037,243.4,-12.5,-11.6,10.0,-5.892269904997443,-15.975349815895353,0.10002271809039742
9.5,23.9566,5.54286,241.7,-15.6,2.8,10.0,-6.4537602466725925,-15.809780237521558,0.10002285119659549
9.599999999999994,24.074,5.07414,240.0,-16.3,16.6,10.1,-6.958244819967173,-15.677790363026688,2.3058594114111486e-05
9.699999999999989,24.2199,4.5605,239.8,-14.5,24.4,10.1,-7.4459358746730615,-15.575733139597613,2.33616297942163e-05
9.799999999999983,24.3716,4.13333,239.8,-12.4,25.0,10.1,-7.887854916587937,-15.496485432453184,2.3702469110098434e-05
9.900000000000006,24.5568,3.67325,239.4,-11.7,25.1,10.1,-8.30049187051253,-15.46583526134555,2.4154215209737373e-05
10.0,24.7466,3.22555,239.6,-10.9,27.9,10.1,-8.653823578339445,-15.471124388040725,2.4637693760709567e-05
10.099999999999994,24.9553,2.77611,240.2,-9.4,28.8,10.1,-8.976890038549241,-15.513958516650437,2.519004869583341e-05
10.199999999999989,25.1502,2.44251,239.8,-9.8,27.9,10.1,-9.22614569755856,-15.585381384062849,2.5720233385762015e-05
10.299999999999983,25.3651,2.1795,239.1,-10.5,26.9,10.1,-9.447521430768933,-15.697720968340178,2.6321365471204672e-05
10.400000000000006,25.5607,2.05364,238.8,-11.3,27.2,10.1,-9.601014307909075,-15.83100854062938,2.6880130077344688e-05
10.5,25.7709,2.07325,238.6,-12.5,27.5,10.0,-9.71825460758716,-16.005718513608148,0.10002749460419924
10.599999999999994,25.9744,2.21586,238.8,-12.8,26.7,10.0,-9.786550333686517,-16.204506001191234,0.10002810067461443
10.699999999999989,26.2039,2.45907,238.9,-12.8,24.6,10.0,-9.829708294188197,-16.45059467223508,0.10002879686744492
10.799999999999983,26.4088,2.74171,239.4,-12.4,22.5,10.0,-9.816778560753846,-16.70311545945078,0.10002943166883327
10.900000000000006,26.6236,2.99809,239.6,-12.7,21.5,10.0,-9.764391911924998,-16.99142855422183,0.1000301115876372
11.0,26.8275,3.29956,239.6,-13.2,21.5,10.0,-9.682731188613541,-17.28343596418913,0.10003077009762507
11.099999999999994,27.0342,3.61049,239.7,-13.0,22.1,10.0,-9.55357191197554,-17.60533613123998,0.10003145507866407
11.199999999999989,27.2464,3.9357,239.8,-12.7,22.2,10.0,-9.40763152247449,-17.940409961845546,0.10003217064711123
11.299999999999983,27.4771,4.20892,239.7,-12.6,21.5,10.0,-9.223034611786236,-18.315207203998643,0.10003296405920015
11.400000000000006,27.7073,4.50279,239.7,-12.5,21.3,10.0,-9.023722619433043,-18.692820516071066,0.10003377129586966
11.5,27.9683,4.75666,240.0,-12.1,21.7,10.0,-8.779548750686343,-19.12419771313503,0.10003470767278877
11.599999999999994,28.2173,5.00658,240.0,-12.2,22.4,10.0,-8.533586267971703,-19.536043430100108,0.10003561862306976
11.699999999999989,28.4869,5.22855,240.7,-11.9,20.2,10.0,-8.251232659215386,-19.98249962428538,0.10003662795976176
11.799999999999983,28.7555,5.32661,241.4,-13.6,11.4,10.0,-7.971683366590097,-20.418506558916608,0.10003765091698069
11.900000000000006,29.0505,5.25946,242.4,-15.2,-0.5,10.0,-7.682419316575576,-20.880740575509527,0.10003878931755761
12.0,29.3425,4.99186,243.7,-14.5,-11.5,10.0,-7.428245320015246,-21.31623203432497,0.1000399264418359
12.099999999999994,29.6484,4.56833,244.2,-11.0,-21.5,10.1,-7.192426587997834,-21.752941936091368,4.112814527701403e-05
12.199999999999989,29.939,4.15096,244.0,-8.1,-26.2,10.1,-7.009393445078654,-22.145638076656027,4.227459839967196e-05
12.299999999999983,30.2406,3.75417,244.0,-7.4,-26.4,10.1,-6.859539604586314,-22.53321944929577,4.346592833925911e-05
12.400000000000006,30.5195,3.38729,244.3,-7.7,-26.9,10.1,-6.738441954177172,-22.882226755733548,4.457714447125838e-05
12.5,30.8034,3.06547,244.1,-7.2,-28.3,10.1,-6.669380128637631,-23.21449784888364,4.570473601672731e-05
12.599999999999994,31.0635,2.73489,244.1,-7.2,-30.0,10.1,-6.647452800792488,-23.501993744285144,4.673387577902588e-05
12.699999999999989,31.3246,2.56743,244.6,-8.1,-29.3,10.1,-6.668315442706742,-23.773887497066323,4.7762057673761404e-05
12.799999999999983,31.5734,2.46383,244.5,-7.7,-29.2,10.1,-6.722515647382715,-24.019838696685433,4.873913254188622e-05
12.900000000000006,31.8194,2.4392,244.6,-7.9,-29.1,10.1,-6.843068736733552,-24.237523878099623,4.9692167718884406e-05
13.0,32.0451,2.49937,244.6,-8.1,-28.5,10.1,-6.9969919078691065,-24.420686413945855,5.055609245996351e-05
13.099999999999994,32.2741,2.64121,244.6,-8.2,-28.3,10.1,-7.1975221767823,-24.5892949976827,5.142752216524826e-05
13.199999999999989,32.495,2.82054,244.9,-8.7,-28.5,10.1,-7.441993940987085,-24.731283277362998,5.225836074096435e-05
13.299999999999983,32.7099,3.06674,244.8,-8.7,-28.9,10.1,-7.718694389431662,-24.85285241032345,5.306052539655326e-05
13.400000000000006,32.9096,3.35099,244.6,-8.5,-29.4,10.1,-8.020305741805846,-24.946311989886574,5.379787520043422e-05
13.5,33.1142,3.64934,244.5,-8.4,-29.5,10.1,-8.37539122438828,-25.020635476866026,5.4547488249401255e-05
13.599999999999994,33.2997,3.9518,244.5,-8.5,-29.4,10.1,-8.748459928374277,-25.06340131369074,5.521813453635005e-05
13.699999999999989,33.4778,4.27462,244.7,-9.0,-29.2,10.1,-9.197795609270457,-25.060664612392372,5.584202366559765e-05
13.799999999999983,33.6564,4.59582,244.8,-9.2,-29.2,10.1,-9.634087848406136,-25.058781302292445,5.6480491488208884e-05
13.900000000000006,33.8459,4.89766,244.6,-9.1,-29.4,10.1,-10.124894452097303,-25.03771798745316,5.7162079143857625e-05
14.0,34.0255,5.206,244.8,-9.7,-29.4,10.1,-10.616271790962681,-24.9986391465607,5.7809849297818516e-05
14.099999999999994,34.2002,5.50894,244.9,-10.0,-29.5,10.1,-11.159133843076026,-24.92062163505102,5.843539024663613e-05
14.199999999999989,34.3888,5.83443,245.2,-10.5,-29.2,10.0,-11.71009802178633,-24.845015102022412,0.10005913183053305
14.299999999999983,34.5985,6.12934,245.4,-11.1,-29.2,10.0,-12.323065007213568,-24.750116314226986,0.10005992224893756
14.400000000000006,34.8101,6.3035,244.9,-12.4,-24.6,10.0,-12.930179214885634,-24.649344695732218,0.1000607400074518
14.5,35.0538,6.22862,244.0,-16.1,-10.9,10.0,-13.610339930272971,-24.53095292809169,0.10006170380083379
14.599999999999994,35.2988,5.95697,242.3,-16.5,3.0,10.0,-14.207479345993747,-24.45218134980763,0.10006270801372708
14.699999999999989,35.5707,5.56544,240.8,-13.8,14.9,10.0,-14.800733683023086,-24.397580650504587,0.1000638528511466
14.799999999999983,35.8336,5.08006,240.5,-10.5,23.0,10.1,-15.319309138443304,-24.372515989723716,6.498807566046594e-05
14.900000000000006,36.1053,4.62067,239.7,-10.4,24.9,10.1,-15.799938665152577,-24.377068781489342,6.618160516413951e-05
15.0,36.3744,4.10908,239.3,-10.1,26.2,10.2,-16.23447134858512,-24.405229527194425,-0.09993261657951713
15.099999999999994,36.6562,3.62472,240.9,-6.4,28.8,10.1,-16.644062260172202,-24.462680907121488,6.866279836348355e-05
15.199999999999989,36.9251,3.14261,240.8,-6.3,29.7,10.1,-16.99388151629228,-24.543940672074427,6.990203380574656e-05
15.299999999999983,37.202,2.76139,240.8,-6.1,29.6,10.1,-17.311807249255153,-24.65629605716542,7.11934591119956e-05
15.400000000000006,37.4805,2.42683,241.3,-5.2,29.2,10.1,-17.614665367155272,-24.78050584435192,7.250677550629803e-05
15.5,37.7214,2.22774,241.3,-5.0,27.6,10.1,-17.80467333603213,-24.940019003453045,7.365673167214482e-05
15.599999999999994,37.9256,2.12151,241.0,-5.3,25.8,10.1,-17.92192087517649,-25.107394203148864,7.464162487913484e-05
15.699999999999989,38.1052,2.14899,240.4,-6.4,24.8,10.0,-17.968852240786063,-25.29574750255209,0.10007551821465377
15.799999999999983,38.2244,2.28578,240.2,-7.4,24.7,10.0,-17.932665913655555,-25.46951824068657,0.10007610674982281
15.900000000000006,38.4112,2.50004,240.1,-8.3,23.8,9.9,-17.920433539801873,-25.708855560180123,0.20007703112554864
16.0,38.5974,2.76649,240.2,-8.8,23.1,9.9,-17.88266785068703,-25.96496774103649,0.2000779615997743
16.099999999999994,38.7978,3.04572,240.4,-8.8,22.1,9.9,-17.812198083038403,-26.260551336935443,0.20007897223787463
16.19999999999999,39.0435,3.34421,240.4,-9.2,21.6,9.9,-17.778510806226155,-26.584067114105125,0.20008021707918466
16.299999999999983,39.2139,3.65016,240.4,-9.2,21.6,9.9,-17.618149859103852,-26.901725017376933,0.2000811021612403
16.400000000000006,39.3704,3.96038,240.6,-8.9,22.1,9.9,-17.426906788009816,-27.220310712626514,0.20008192375056222
16.5,39.5302,4.21078,240.9,-8.4,20.9,9.9,-17.188066892405637,-27.570776653697116,0.20008277644932804
16.599999999999994,39.6618,4.42085,241.1,-8.9,18.8,9.9,-16.907727251770005,-27.909748869214674,0.20008349850708917
16.69999999999999,39.8156,4.60637,241.2,-9.3,16.8,10.0,-16.61937361297954,-28.27467561032553,0.10008434381088804
16.799999999999983,39.9656,4.69659,242.0,-8.6,14.0,10.0,-16.330112403591716,-28.630105360727242,0.10008517713619991
16.900000000000006,40.1289,4.62117,242.2,-9.6,6.1,10.0,-16.022225058134484,-29.00668933807747,0.10008609301211724
17.0,40.2858,4.51225,242.4,-10.0,-1.2,10.1,-15.73373414679904,-29.35857597615125,8.698088088010536e-05
17.099999999999994,40.4426,4.40858,242.5,-8.7,-3.3,10.1,-15.424246002560121,-29.717075654624814,8.788001788406774e-05
17.19999999999999,40.6099,4.30401,242.8,-8.3,-2.5,10.1,-15.152176174855615,-30.06126762337175,8.883678747295676e-05
17.299999999999983,40.7875,4.05712,243.6,-6.5,-3.7,10.1,-14.874392197500239,-30.415582319211524,8.985975196384999e-05
17.400000000000006,40.9431,3.58575,242.4,2.4,-20.3,10.1,-14.63137980810092,-30.72201734863077,9.076210092295867e-05
