time,distance(meters),speed(m/s), compass_heading(degrees), pitch(degrees), roll(degrees),height_above_takeoff(meters),North,East,Down
0.0,11.1426,0.412939,245.6,-18.7,-2.3,15.3,0.0,0.0,0.0
0.09999999999999432,11.1572,0.713941,245.9,-23.9,-3.7,15.3,-0.008672004086695313,-0.014951191042305684,2.731253070931139e-11
0.20000000000000284,11.1898,0.930563,245.8,-22.8,-3.6,15.2,-0.021317605692360853,-0.0481126322741155,0.1000000015936523
0.29999999999999716,11.2349,1.11475,245.8,-21.7,-2.7,15.1,-0.04356871606975883,-0.09413847059868684,0.20000000154497505
0.3999999999999915,11.2974,1.29816,245.8,-21.7,-2.3,15.0,-0.07820460754341522,-0.15796979550920293,0.30000000221156004
0.5,11.3512,1.48278,245.9,-22.0,-2.3,14.9,-0.12995121277174587,-0.21346733135404528,0.4000000063248549
0.5999999999999943,11.4352,1.59782,245.9,-21.1,-2.2,14.8,-0.17849425458236756,-0.2989464722789903,0.5000000090892067
0.7000000000000028,11.5313,1.73484,246.0,-20.9,-2.1,14.7,-0.2275207114968937,-0.3962342161607462,0.6000000176278382
0.7999999999999972,11.6513,1.86682,246.0,-20.5,-2.7,14.6,-0.2783433316469438,-0.5173854320408637,0.7000000260355705
0.8999999999999915,11.7796,1.99833,246.0,-20.3,-3.0,14.5,-0.3359096803916292,-0.6466394300116436,0.8000000418368802
1.0,11.9296,2.12155,246.0,-19.9,-2.6,14.4,-0.40521611242788924,-0.7973493633859238,0.90000006278986
1.0999999999999943,12.0848,2.25621,245.9,-19.5,-2.2,14.2,-0.4833432538605149,-0.9528151735043998,1.1000000898532003
1.2000000000000028,12.2606,2.37502,245.9,-19.4,-1.8,14.1,-0.5712799811993666,-1.1283918748297888,1.2000001264768345
1.2999999999999972,12.4383,2.51249,245.9,-19.2,-1.6,14.0,-0.6587668329840332,-1.3051694958071802,1.3000001677431183
1.3999999999999915,12.6363,2.62024,245.9,-19.1,-2.1,13.8,-0.7656144153633582,-1.5013019128267089,1.5000002225551643
1.5,12.8371,2.62411,246.0,-17.6,-2.5,13.7,-0.8604520108604763,-1.6998533409577492,1.6000002852517592
1.5999999999999943,13.0667,2.58284,245.8,-14.8,-1.5,13.6,-0.9624417787602011,-1.9262671350818934,1.700000363576473
1.7000000000000028,13.296,2.6329,246.6,-15.3,-1.7,13.5,-1.0682906400250007,-2.1516365777437807,1.8000004529947953
1.7999999999999972,13.5489,2.71719,247.7,-15.7,-2.1,13.5,-1.2021778503301386,-2.3983923226771395,1.8000005648888648
1.8999999999999915,13.7952,2.94103,248.8,-14.6,-1.7,13.5,-1.323829148714876,-2.6382624170746913,1.8000006832313176
2.0,14.0604,3.17945,249.9,-13.7,-1.2,13.7,-1.449885963748266,-2.8960335667282027,1.6000008240237171
2.0999999999999943,14.3254,3.44963,250.7,-14.2,-1.9,13.8,-1.5696055996651301,-3.1531622263920163,1.500000972963865
2.200000000000003,14.6334,3.72469,251.2,-15.1,-2.8,14.0,-1.7084622309890107,-3.451290753362422,1.3000011616212743
2.299999999999997,14.9215,4.0465,251.7,-15.1,-3.2,14.2,-1.83303488709449,-3.7297418089821317,1.100001353732687
2.3999999999999915,15.2276,4.30537,252.1,-14.4,-3.4,14.5,-1.9681432501809222,-4.024704943319271,0.800001573318408
2.5,15.5215,4.52101,252.4,-13.6,-3.3,14.8,-2.0964113267281665,-4.307397471049196,0.500001798177041
2.5999999999999943,15.8318,4.71012,252.8,-14.2,-3.9,15.1,-2.2295535421664123,-4.605400176447017,0.20000205211750166
2.700000000000003,16.1316,4.78837,253.2,-14.6,-3.7,15.5,-2.3603603128224884,-4.892476453746076,-0.1999976870828022
2.799999999999997,16.4573,4.79616,253.6,-14.9,-3.3,15.9,-2.4930461980524425,-5.204800456811583,-0.5999973890520649
2.8999999999999915,16.763,4.77384,254.3,-15.5,-3.5,16.2,-2.6160305411199394,-5.497821134456714,-0.8999970935494899
3.0,17.0738,4.66701,255.1,-15.7,-3.7,16.6,-2.7409410145527495,-5.795179706582018,-1.2999967787617202
3.0999999999999943,17.3672,4.46057,256.1,-16.8,-4.2,16.9,-2.852848450352705,-6.076472984228949,-1.5999964674762444
3.200000000000003,17.683,4.08447,257.4,-19.4,-4.7,17.2,-2.9680774152606006,-6.379546815445398,-1.8999961194342885
3.299999999999997,17.9826,3.63717,258.4,-21.3,-5.8,17.4,-3.0753181684017417,-6.667174892966523,-2.0999957734793058
3.3999999999999915,18.297,3.26931,259.0,-21.9,-6.8,17.6,-3.187747104820766,-6.96878047887601,-2.2999953966400195
3.5,18.5899,3.01469,259.3,-22.2,-6.8,17.7,-3.2868688769846015,-7.250403950438837,-2.399995032339386
3.5999999999999943,18.8902,2.97659,259.4,-23.4,-6.8,17.7,-3.3806470599135414,-7.540204546845988,-2.3999946475094536
3.700000000000003,19.1794,3.07516,259.6,-24.2,-7.2,17.7,-3.4677464068423234,-7.81970293208189,-2.3999942640763434
3.799999999999997,19.4911,3.22039,259.7,-24.9,-7.3,17.6,-3.557926287518426,-8.121441840660953,-2.299993837046112
3.8999999999999915,19.7735,3.43586,259.8,-25.9,-8.1,17.5,-3.639458462151281,-8.394750364837112,-2.1999934390918243
4.0,20.095,3.64023,259.6,-24.3,-7.7,17.3,-3.7307055944494856,-8.70614030161055,-1.9999929684388102
4.099999999999994,20.4176,3.83981,259.6,-23.5,-7.0,17.2,-3.8187330698004516,-9.019048208134109,-1.8999924818990075
4.200000000000003,20.7785,4.00338,259.6,-23.1,-7.5,17.0,-3.9106700102910086,-9.370188351283097,-1.6999919198169355
4.299999999999997,21.1366,4.14227,259.7,-22.0,-7.7,16.9,-4.00317768848718,-9.71833877555255,-1.5999913415168718
4.3999999999999915,21.5352,4.27723,259.8,-21.6,-7.8,16.7,-4.108367870259481,-10.10545076156031,-1.3999906728604519
4.5,21.9227,4.28091,259.5,-20.0,-7.4,16.5,-4.212605929232969,-10.481351707691234,-1.199990000056636
4.599999999999994,22.3496,4.37115,259.4,-19.0,-7.1,16.4,-4.324368764442952,-10.895878511869263,-1.0999892302478707
4.700000000000003,22.7665,4.46275,259.4,-19.2,-6.5,16.3,-4.4378035563155365,-11.299961805126085,-0.9999884502900165
4.799999999999997,23.2439,4.50625,259.3,-16.8,-4.9,16.2,-4.571729552413371,-11.761711588548728,-0.8999875207103094
4.8999999999999915,23.6884,4.55713,259.4,-13.8,-3.7,16.1,-4.696077400369274,-12.191712718020206,-0.7999866243099649
5.0,24.1658,4.602,259.3,-11.9,-3.8,16.1,-4.824965843037955,-12.654272199980143,-0.7999856268028787
5.099999999999994,24.6176,4.70563,259.5,-12.8,-4.0,16.2,-4.948143168196253,-13.091740752382364,-0.8999846483592
5.200000000000003,25.1003,4.82344,259.9,-14.1,-4.4,16.3,-5.088295492802403,-13.557368620390683,-0.9999835680092009
5.299999999999997,25.5447,5.00785,260.2,-14.9,-5.3,16.5,-5.20602930911542,-13.98820285402791,-1.1999825431939874
5.3999999999999915,26.0098,5.18702,260.4,-14.9,-6.0,16.7,-5.323942235825093,-14.439987133265884,-1.3999814388580831
5.5,26.4595,5.28183,260.3,-16.2,-6.2,16.9,-5.443330653527414,-14.875856089585866,-1.5999803377348343
5.599999999999994,26.9198,5.28421,260.3,-17.6,-5.7,17.1,-5.581675619760208,-15.318686180284988,-1.7999791709103325
5.700000000000003,27.3832,5.36752,260.0,-16.8,-5.0,17.4,-5.710894006548449,-15.76642518118728,-2.099977965839982
5.799999999999997,27.8773,5.41051,259.7,-16.2,-4.9,17.7,-5.846012798753372,-16.244240389267578,-2.3999766443046138
5.8999999999999915,28.3522,5.45462,259.6,-16.5,-4.9,17.9,-5.971822088517444,-16.70430524164836,-2.5999753415262052
6.0,28.8573,5.43189,259.3,-16.6,-5.2,18.1,-6.099002400655026,-17.19487205031062,-2.7999739172242357
6.099999999999994,29.3538,5.50732,259.0,-16.0,-5.6,18.4,-6.224631129074733,-17.67697554440951,-3.0999724789346734
6.200000000000003,29.8645,5.55166,258.9,-15.9,-5.2,18.6,-6.354408390136415,-18.172640097863635,-3.2999709590490207
6.299999999999997,30.3509,5.52271,259.0,-16.8,-4.2,18.9,-6.479426697843936,-18.644452925625174,-3.5999694732260368
6.3999999999999915,30.8571,5.31035,259.0,-19.7,-4.4,19.1,-6.608890428603328,-19.13561560835082,-3.7999678861703376
6.5,31.3364,4.92684,259.1,-22.4,-5.7,19.2,-6.725291108886282,-19.60183958838101,-3.8999663489115752
6.599999999999994,31.837,4.78591,258.6,-20.1,-5.6,19.3,-6.841501029856252,-20.090029321981525,-3.999964707835695
6.700000000000003,32.3078,4.77538,258.1,-19.7,-4.9,19.4,-6.950553544910626,-20.549112803375642,-4.0999631293726875
6.799999999999997,32.7947,4.7777,257.7,-21.4,-5.0,19.4,-7.065471705755618,-21.023406859948956,-4.099961457093961
6.8999999999999915,33.2581,4.86214,256.9,-21.2,-5.3,19.4,-7.1769628838504245,-21.474392987586832,-4.099959831224746
7.0,33.747,4.92132,256.1,-21.0,-5.2,19.3,-7.3019076497490705,-21.94863137642762,-3.999958075355617
7.099999999999994,34.2178,5.02168,255.3,-22.0,-5.1,19.2,-7.4187118260282965,-22.40601502354981,-3.8999563513606397
7.200000000000003,34.7229,5.13123,254.3,-22.2,-4.9,19.1,-7.533777819641012,-22.898910410733116,-3.7999544680593544
7.299999999999997,35.2201,5.23391,253.3,-21.7,-4.2,19.1,-7.640998062694358,-23.385337668432854,-3.7999525765532365
7.3999999999999915,35.7506,5.33438,252.3,-21.4,-4.1,18.9,-7.769345675360077,-23.901487186874803,-3.599950508496512
7.5,36.2631,5.30327,251.5,-20.1,-3.9,18.8,-7.897038217503056,-24.399209141809102,-3.499948470029143
7.599999999999994,36.8094,5.40772,251.3,-18.9,-3.3,18.8,-8.039213960347267,-24.928510242381066,-3.4999462467070375
7.700000000000003,37.3395,5.51379,251.3,-18.8,-2.8,18.7,-8.180032229323615,-25.441574839404876,-3.399944042994106
7.799999999999997,37.905,5.59465,251.5,-17.9,-2.8,18.7,-8.347500172031967,-25.98498527384903,-3.399941636665713
7.8999999999999915,38.4519,5.72635,251.6,-16.2,-2.6,18.7,-8.496255356697036,-26.51340437908767,-3.3999392668033908
8.0,39.0305,5.82429,251.6,-15.0,-2.6,18.8,-8.653476241428018,-27.072490056048835,-3.499936708336721
8.099999999999994,39.5828,5.94733,251.5,-15.2,-3.1,18.9,-8.803278240748302,-27.60616766595334,-3.5999342174350484
8.200000000000003,40.1706,5.99332,251.6,-17.4,-3.7,19.1,-8.95623420251891,-28.175487339000817,-3.79993151645171
8.299999999999997,40.7266,6.05115,251.6,-18.5,-3.3,19.3,-9.105765386701897,-28.712899924687374,-3.999928910324063
8.399999999999991,41.3142,6.0874,251.6,-18.8,-3.3,19.5,-9.263684117584745,-29.280955804726627,-4.199926102532307
8.5,41.8769,6.00189,251.4,-18.8,-3.6,19.7,-9.416914594660037,-29.82435587227371,-4.399923361539856
8.599999999999994,42.4917,6.03914,251.2,-18.4,-3.7,19.9,-9.58873488070818,-30.417163217232634,-4.599920307734159
8.700000000000003,43.0588,6.09551,251.2,-18.3,-3.2,20.1,-9.748381573381302,-30.963602906311863,-4.799917437268475
8.799999999999997,43.6519,6.09876,251.1,-18.2,-3.3,20.3,-9.915011507932915,-31.5351605678957,-4.9999143819373675
8.899999999999991,44.2207,6.14492,251.1,-18.3,-3.4,20.5,-10.076049472870348,-32.08302848050862,-5.199911399046782
9.0,44.8359,6.14913,251.2,-18.4,-3.3,20.7,-10.251303176708504,-32.67529001667976,-5.399908113762736
9.099999999999994,45.4055,6.13725,251.1,-18.6,-3.4,20.9,-10.414004770105489,-33.223539885970396,-5.599905021998699
9.200000000000003,45.9939,6.03098,251.2,-19.8,-3.7,21.1,-10.582087349477797,-33.78975955063312,-5.799901771623088
9.299999999999997,46.548,5.85132,251.5,-22.4,-4.1,21.2,-10.74092977778237,-34.32285727564201,-5.8998986613423074
9.399999999999991,47.1222,5.71019,251.6,-21.7,-4.3,21.3,-10.907540690314601,-34.87479158602818,-5.999895387107916
9.5,47.641,5.53207,251.6,-19.4,-4.2,21.4,-11.060366405584695,-35.372980908194506,-6.099892381563511
9.599999999999994,48.2135,5.50659,251.7,-23.1,-4.7,21.4,-11.214937741577991,-35.92588839440881,-6.099889023824092
9.700000000000003,48.7535,5.57303,251.7,-22.7,-5.0,21.3,-11.360062298492839,-36.44756401653081,-5.999885809422889
9.799999999999997,49.3207,5.65022,251.6,-21.3,-4.9,21.2,-11.5148060634757,-36.99501816142663,-5.899882381457216
9.899999999999991,49.8749,5.75165,251.7,-22.3,-4.8,21.1,-11.658295006709599,-37.531604902097556,-5.799878988991049
10.0,50.4736,5.84764,251.6,-22.4,-4.9,21.0,-11.825484634654085,-38.10846897007393,-5.6998752624408855
10.099999999999994,51.0479,5.94524,251.7,-22.5,-4.6,20.8,-11.987486661726198,-38.66142877327903,-5.4998716346088585
10.200000000000003,51.6536,6.02564,251.7,-22.2,-4.5,20.7,-12.159597831515976,-39.24434512525983,-5.399867750575897
10.299999999999997,52.2673,6.10104,251.7,-21.6,-4.4,20.6,-12.329778703291128,-39.8358339376246,-5.299863758836131
10.399999999999991,52.8764,6.17045,251.6,-21.4,-4.5,20.5,-12.505816694035197,-40.421247582680394,-5.1998597365746395
10.5,53.4583,6.09327,251.6,-19.8,-4.2,20.4,-12.675965835097703,-40.98002737935218,-5.0998558361673005
10.599999999999994,54.0742,6.16332,251.5,-17.5,-3.7,20.3,-12.85973617695144,-41.570462360179064,-4.999851650656141
10.700000000000003,54.6448,6.26171,251.7,-17.1,-3.8,20.3,-13.036478040138736,-42.1159889303579,-4.999847714893051
10.799999999999997,55.281,6.338,251.7,-15.7,-3.0,20.3,-13.230519372085705,-42.72483729736673,-4.999843267931049
10.899999999999991,55.8913,6.45392,251.8,-14.5,-2.9,20.4,-13.415583129476103,-43.30916030019963,-5.0998389429857
11.0,56.5381,6.52407,251.8,-14.1,-3.2,20.5,-13.608095983862896,-43.92930826687096,-5.199834298171693
11.099999999999994,57.1514,6.6235,251.9,-14.2,-3.4,20.7,-13.7919448219366,-44.51688537011428,-5.399829829162715
11.200000000000003,57.8155,6.69986,252.0,-14.7,-3.9,20.9,-14.002890269030733,-45.15028049368285,-5.599824920810733
11.299999999999997,58.4268,6.81593,252.3,-15.5,-4.5,21.1,-14.189229868519295,-45.73512371344953,-5.799820344976909
11.399999999999991,59.0725,6.90638,252.5,-16.0,-4.6,21.4,-14.381472895420464,-46.354055235041116,-6.099815448636805
11.5,59.6856,6.87869,252.5,-16.8,-5.0,21.7,-14.565310313952887,-46.94136221574203,-6.39981073869976
11.599999999999994,60.3543,6.90277,252.4,-17.9,-5.4,22.1,-14.766034271036414,-47.581834691168766,-6.799805534348614
11.700000000000003,60.9586,6.94301,252.2,-18.3,-5.0,22.4,-14.950644664827976,-48.159733127019095,-7.0998007697537195
11.799999999999997,61.5819,6.87874,252.0,-18.3,-4.4,22.7,-15.14042436309639,-48.756086339944616,-7.399795794440616
11.899999999999991,62.1789,6.83794,251.8,-18.4,-4.0,23.0,-15.323647775579545,-49.32677182635136,-7.699790971654247
12.0,62.8303,6.71367,251.8,-18.7,-4.2,23.3,-15.532540310516229,-49.94725040927854,-7.999785639249268
12.099999999999994,63.4373,6.48196,252.3,-20.7,-4.8,23.6,-15.719985277879847,-50.527169136862256,-8.299780615172498
12.200000000000003,64.0669,6.13032,252.8,-24.2,-5.7,23.8,-15.910468241273959,-51.12963525100905,-8.499775345796088
12.299999999999997,64.6439,5.85318,253.0,-24.3,-6.6,24.0,-16.078860744432383,-51.683243930462346,-8.69977046408926
12.399999999999991,65.2226,5.66828,253.0,-24.0,-7.4,24.0,-16.241058919729706,-52.24022271065252,-8.699765519082764
12.5,65.7634,5.51152,253.2,-23.5,-7.5,24.0,-16.388498841257153,-52.76168579294291,-8.699760852708572
12.599999999999994,66.3329,5.57151,252.9,-21.3,-7.3,23.9,-16.545566329004842,-53.31052275059628,-8.59975588509873
12.700000000000003,66.8844,5.68056,252.9,-22.2,-7.1,23.8,-16.70034247062169,-53.841183763976865,-8.499751027978576
12.799999999999997,67.4774,5.7483,253.1,-23.4,-6.8,23.7,-16.868709395607112,-54.41135842252491,-8.39974574853594
12.899999999999991,68.0437,5.838,253.0,-22.8,-6.5,23.5,-17.024025451594532,-54.95714736904475,-8.199740660180819
13.0,68.621,5.90752,252.9,-21.9,-6.3,23.4,-17.18415280344188,-55.513170709364076,-8.099735418717325
13.099999999999994,69.1746,5.96977,252.7,-21.1,-6.2,23.3,-17.34294094908364,-56.04498491828479,-7.999730340774379
13.200000000000003,69.7628,6.0344,252.6,-20.5,-6.0,23.2,-17.522600163392227,-56.607285938113975,-7.8997248860838045
13.299999999999997,70.3045,6.06881,252.5,-19.3,-5.7,23.1,-17.69279341869796,-57.12392559800216,-7.799719814640614
13.399999999999991,70.9188,6.06936,252.3,-17.3,-5.5,23.0,-17.883285379100673,-57.71032889707555,-7.6997140072988
13.5,71.5054,5.91796,252.1,-14.9,-4.9,22.9,-18.068024358625372,-58.269582824294034,-7.599708404638341
13.599999999999994,72.1217,5.91517,252.5,-14.0,-3.8,22.8,-18.263236338556595,-58.85692550825253,-7.499702458213865
13.700000000000003,72.7136,5.91106,253.3,-13.0,-3.5,22.8,-18.449181879798722,-59.42125130160244,-7.49969669474181
13.799999999999997,73.3473,5.88418,253.9,-10.9,-3.5,22.8,-18.64264722599153,-60.02696179259969,-7.499690463919164
13.899999999999991,73.9361,5.91445,254.5,-12.2,-4.3,22.9,-18.823672094815045,-60.58934113896437,-7.599684617390538
14.0,74.5259,5.90058,255.1,-12.7,-4.4,23.0,-19.009373690537014,-61.151537257627005,-7.699678704702864
14.099999999999994,75.0892,5.92065,255.8,-12.4,-4.9,23.2,-19.182257621303883,-61.68966263224738,-7.899673007088522
14.200000000000003,75.6704,5.86717,256.6,-12.8,-4.9,23.4,-19.355865263053282,-62.24608620612594,-8.09966708006138
14.299999999999997,76.2213,5.83135,257.4,-12.4,-4.9,23.6,-19.521401077679286,-62.77320679589135,-8.299661413901113
14.399999999999991,76.7996,5.7744,258.2,-12.2,-5.7,23.8,-19.699935400546437,-63.32533090242223,-8.499655409485719
14.5,77.3356,5.58737,258.9,-11.9,-6.4,24.0,-19.862666966501372,-63.83770462511397,-8.699649801603991
14.599999999999994,77.8951,5.52614,259.6,-11.6,-6.5,24.2,-20.039662678705863,-64.37075935447506,-8.899643893080041
14.700000000000003,78.4028,5.50165,260.3,-11.9,-6.6,24.4,-20.188575050324733,-64.85744238449028,-9.099638495033819
14.799999999999997,78.9265,5.43643,261.0,-11.8,-6.6,24.6,-20.33922681979081,-65.36027762167072,-9.299632888541819
14.899999999999991,79.426,5.36186,261.8,-12.1,-7.0,24.8,-20.481052564629877,-65.84033182533287,-9.499627499648717
15.0,79.9785,5.09436,262.4,-16.5,-8.9,25.0,-20.631575510970617,-66.37304290906992,-9.69962149636227
15.099999999999994,80.4671,4.86749,262.3,-16.1,-9.6,25.1,-20.766136599258004,-66.84375611261123,-9.799616148075804
15.200000000000003,80.9573,4.74665,261.7,-13.1,-8.2,25.1,-20.89915719737011,-67.31643860096749,-9.799610744693402
15.299999999999997,81.4185,4.69846,261.6,-13.2,-7.9,25.1,-21.022457477286565,-67.76175783710826,-9.79960562657467
15.399999999999991,81.896,4.66298,261.3,-13.5,-8.2,25.0,-21.14540476248074,-68.22398423060552,-9.699600296265466
15.5,82.3385,4.54847,261.0,-11.9,-7.3,24.9,-21.263008014714238,-68.65139371112174,-9.599595321928895
15.599999999999994,82.7798,4.55839,260.9,-12.0,-6.6,24.8,-21.383620747165573,-69.07671067919694,-9.49959032985127
15.700000000000003,83.2004,4.57596,261.0,-12.8,-6.5,24.7,-21.496739510087018,-69.48266028421003,-9.39958554410226
15.799999999999997,83.6136,4.58146,261.2,-13.1,-6.4,24.6,-21.595554965909503,-69.88459274615724,-9.299580822790173
15.899999999999991,84.0438,4.58785,261.3,-13.6,-6.5,24.4,-21.707781845082444,-70.30066783121273,-9.099575871642136
16.0,84.5002,4.59251,261.3,-13.3,-6.1,24.3,-21.83127671135572,-70.74093032415982,-8.999570585188408
16.099999999999994,84.935,4.58006,261.2,-12.8,-6.2,24.2,-21.94810549243023,-71.16051189604762,-8.899565519068954
16.200000000000003,85.3932,4.52951,261.1,-11.6,-5.8,24.1,-22.070750779334688,-71.60285162533232,-8.799560148618163
16.299999999999997,85.8495,4.4705,261.2,-11.0,-5.5,24.0,-22.20078321083718,-72.04130419593318,-8.699554763943507
16.39999999999999,86.2945,4.41029,261.3,-11.2,-5.9,23.9,-22.320739808271572,-72.4706610783222,-8.599549484477478
16.499999999999986,86.7171,4.26217,261.3,-10.8,-5.5,23.9,-22.43252087180851,-72.87892578160394,-8.599544444090581
16.60000000000001,87.1643,4.26411,261.1,-9.3,-4.5,23.9,-22.545704618691403,-73.31233898523936,-8.599539080161314
16.700000000000003,87.5943,4.32151,261.0,-7.3,-3.7,24.0,-22.65071569510291,-73.7301815425793,-8.699533896285892
16.799999999999997,88.0279,4.39384,261.1,-7.9,-4.2,24.1,-22.755088134876665,-74.15178913797962,-8.799528640003068
16.89999999999999,88.4299,4.5706,261.5,-9.6,-5.2,24.3,-22.84976812200858,-74.54332352572993,-8.999523741754626
16.999999999999986,88.842,4.7228,262.1,-12.4,-7.2,24.5,-22.94733036548147,-74.94454926235741,-9.199518691809583
17.10000000000001,89.236,4.80569,263.1,-14.3,-8.5,24.8,-23.039998173813363,-75.32821882388792,-9.499513840844317
17.200000000000003,89.6577,4.8533,263.3,-14.4,-8.6,25.1,-23.13987233185888,-75.73875528087733,-9.799508620686558
17.299999999999997,90.0625,4.91848,263.2,-13.1,-7.4,25.4,-23.23735551080129,-76.13245228377859,-10.099503583274558
17.39999999999999,90.4891,4.91739,263.3,-11.9,-6.6,25.7,-23.339883680623323,-76.5473190154975,-10.399498247437329
17.499999999999986,90.8972,4.75592,263.4,-11.9,-6.5,25.9,-23.43844281143057,-76.94405441673952,-10.599493115121561
17.60000000000001,91.2957,4.54028,263.9,-13.3,-7.2,26.2,-23.53155264962988,-77.33234455144284,-10.899488079654395
