time,distance(meters),speed(m/s), compass_heading(degrees), pitch(degrees), roll(degrees),height_above_takeoff(meters),North,East,Down
0.0,110.231,0.525323,250.6,-6.2,-22.7,10.5,0.0,0.0,0.0
0.10000000000002274,110.222,0.913995,250.7,-5.1,-27.8,10.5,-0.06302693984902116,0.03553473942645586,-1.066187808179686e-09
0.19999999999998863,110.205,1.33853,250.8,-4.7,-28.6,10.5,-0.15514302377579414,0.09252167098531228,2.2421067363831426e-09
0.30000000000001137,110.176,1.73187,251.3,-5.3,-29.0,10.5,-0.2871031581896225,0.1779180642819389,7.227203363546764e-09
0.39999999999997726,110.136,2.13658,251.6,-6.3,-29.6,10.5,-0.44247155356343926,0.2864697010056877,2.0268925898792034e-08
0.5,110.096,2.44651,251.8,-7.2,-29.4,10.5,-0.6318731194219176,0.4088976807974032,4.4797423215392485e-08
0.6000000000000227,110.055,2.74566,251.6,-7.7,-25.5,10.5,-0.8417413908841958,0.5416431924322713,7.964503340174289e-08
0.6999999999999886,110.01,2.86744,250.8,-7.8,-14.8,10.5,-1.0838281813335806,0.6931908775317677,1.300334258047542e-07
0.8000000000000114,109.963,2.66817,249.5,-6.3,1.3,10.6,-1.2914657374462968,0.8329165837836147,-0.0999998162656125
0.8999999999999773,109.9,2.33076,249.6,-2.8,16.4,10.6,-1.5002908746110806,0.9903829347138282,-0.09999974691384328
1.0,109.834,1.94409,249.1,-2.1,21.5,10.6,-1.663593983012304,1.1328502999519496,-0.09999968247082369
1.1000000000000227,109.757,1.5385,248.9,-1.6,23.1,10.6,-1.793121099068617,1.2736375419757218,-0.09999962110365845
1.1999999999999886,109.677,1.22215,249.9,0.6,26.0,10.6,-1.9131993713201736,1.4130806791686388,-0.09999955710076658
1.3000000000000114,109.584,1.05309,249.7,0.7,26.0,10.6,-1.9498446707752652,1.529819144403171,-0.09999951806656082
1.3999999999999773,109.487,1.09279,250.0,1.2,26.0,10.6,-1.9387054272771853,1.630947680501082,-0.09999949644375872
1.5,109.374,1.37834,250.5,2.2,26.0,10.6,-1.876429752019392,1.7272725591574776,-0.0999994909869314
1.6000000000000227,109.251,1.72051,250.1,1.0,24.5,10.6,-1.7696722836727037,1.8158382781808278,-0.09999949674364916
1.6999999999999886,109.107,2.0273,250.1,0.3,23.2,10.6,-1.6328865759721585,1.9129573798225783,-0.099999504001823
1.8000000000000114,108.957,2.38508,249.9,0.0,19.9,10.6,-1.4398990496444393,1.993267538541271,-0.09999952687123481
1.8999999999999773,108.791,2.70693,249.0,-1.4,15.5,10.6,-1.199297469111147,2.0701257742729946,-0.09999955200021704
2.0,108.622,2.97562,248.5,-3.6,13.5,10.6,-0.9358568409413694,2.1409813643778657,-0.09999957308556434
2.1000000000000227,108.434,3.0626,248.7,-5.2,5.6,10.6,-0.6188959139911978,2.209416023591359,-0.09999958920241192
2.1999999999999886,108.258,2.99191,249.5,-6.6,-9.5,10.6,-0.3299434159580743,2.2789351259031347,-0.09999958528260822
2.3000000000000114,108.075,2.7677,250.0,-5.9,-23.1,10.6,-0.050988774331634415,2.360115857408333,-0.09999956328327371
2.3999999999999773,107.892,2.47568,249.8,-4.1,-27.9,10.6,0.18332514594010285,2.4603584243951353,-0.09999952356489669
2.5,107.679,2.25515,249.9,-3.6,-27.6,10.6,0.4135301497804311,2.595181103284792,-0.09999946001187052
2.6000000000000227,107.477,2.12696,250.2,-4.3,-27.8,10.6,0.5803065536194025,2.744445270262405,-0.09999938469583325
2.6999999999999886,107.259,2.10893,250.5,-4.9,-28.4,10.6,0.7225506622023866,2.921462115507084,-0.09999929146943798
2.8000000000000114,107.046,2.11566,250.6,-5.4,-29.0,10.6,0.8279385141165865,3.108865220154208,-0.09999919045015249
2.8999999999999773,106.792,2.15044,250.8,-5.5,-29.0,10.6,0.977305398356555,3.3219971906362344,-0.09999906221125104
3.0,106.579,2.30874,251.1,-5.7,-29.6,10.6,1.0024416970776144,3.5427814313480175,-0.09999893935209664
3.1000000000000227,106.358,2.51687,251.3,-5.6,-30.1,10.6,0.9767709987258634,3.792601373257008,-0.09999880060011496
3.1999999999999886,106.147,2.755,251.3,-5.9,-29.3,10.6,0.9153362962764681,4.047240241747884,-0.09999865187947826
3.3000000000000114,105.924,2.91584,251.0,-6.8,-21.5,10.6,0.8191865168908526,4.329746369610424,-0.09999848037927839
3.3999999999999773,105.705,2.91157,250.0,-7.4,-5.8,10.6,0.7032461944392193,4.617636559906762,-0.09999829216689332
3.5,105.465,2.77841,249.1,-5.9,11.1,10.6,0.6242170430209801,4.9114606432172785,-0.0999980808767757
3.6000000000000227,105.234,2.58368,249.1,-4.5,20.8,10.6,0.5812350781089122,5.18150325829756,-0.0999978715978817
3.6999999999999886,104.987,2.41396,248.5,-4.7,22.9,10.7,0.5757479640424017,5.452645651818339,-0.19999764664183445
3.8000000000000114,104.723,2.37073,248.6,-3.9,23.8,10.7,0.6064178444888044,5.726766359409201,-0.19999740385884623
3.8999999999999773,104.473,2.42531,248.9,-3.1,24.2,10.7,0.6876202197329555,5.964680243239291,-0.19999717712119208
4.0,104.235,2.55668,248.5,-4.0,24.2,10.7,0.8035376907888124,6.174230469685304,-0.19999696451910032
4.100000000000023,103.983,2.75611,248.6,-3.2,23.6,10.6,0.9651245400279421,6.3791296651526554,-0.0999967413906071
4.199999999999989,103.755,3.00056,248.5,-2.8,23.3,10.6,1.1162194118427764,6.563600109737843,-0.09999652910933177
4.300000000000011,103.483,3.29734,247.8,-4.1,22.9,10.6,1.374739236348615,6.74917783129373,-0.099996284910015
4.399999999999977,103.217,3.62134,247.4,-5.2,22.4,10.6,1.6674222421423341,6.9143648660364665,-0.09999603651951183
4.5,102.932,3.89189,247.4,-6.6,21.1,10.6,2.0212973218741737,7.07460310171078,-0.09999575996567034
4.600000000000023,102.678,4.01377,247.9,-8.6,11.9,10.6,2.386487869859571,7.197130054656826,-0.09999549657405771
4.699999999999989,102.422,3.92376,249.0,-11.8,-5.0,10.6,2.7717694896003113,7.3155635852891,-0.09999520591615751
4.800000000000011,102.186,3.63602,250.9,-12.9,-19.9,10.6,3.1218129873970266,7.427070421148532,-0.09999491396605276
4.899999999999977,101.943,3.22864,251.4,-10.1,-26.1,10.6,3.455042191002604,7.552820169178803,-0.09999459480173956
5.0,101.72,2.89341,251.2,-8.1,-26.1,10.5,3.7318007925067933,7.682243208254002,5.717236799096526e-06
5.100000000000023,101.49,2.68608,251.2,-7.6,-26.7,10.6,4.008464165683664,7.819120137806641,-0.09999394869898581
5.199999999999989,101.268,2.46458,251.5,-8.0,-28.0,10.6,4.2145154716524225,7.974921355444847,-0.09999362222729502
5.300000000000011,101.034,2.31927,251.7,-8.3,-28.7,10.6,4.397854910024074,8.154672056508327,-0.09999326983503964
5.399999999999977,100.817,2.20031,251.6,-8.0,-28.9,10.5,4.53071666842807,8.335247445165212,7.0555940530070416e-06
5.5,100.598,2.12299,251.7,-8.0,-29.3,10.5,4.6659970562126425,8.517449631710765,7.395462208847903e-06
5.600000000000023,100.389,2.17778,251.9,-8.2,-29.4,10.6,4.715654282041156,8.723563306650254,-0.09999229124690379
5.699999999999989,100.164,2.29151,251.9,-8.0,-29.6,10.6,4.7261204592903345,8.96114875028978,-0.09999195514112369
5.800000000000011,99.9603,2.49427,251.7,-6.9,-29.5,10.6,4.692179981213668,9.19477064698342,-0.09999164657446569
5.899999999999977,99.7556,2.78942,251.2,-5.3,-29.9,10.6,4.599882093046344,9.452701018308506,-0.09999133847562058
6.0,99.5532,3.09503,251.1,-4.5,-30.1,10.6,4.488319572366881,9.716473663264946,-0.09999102212556599
6.100000000000023,99.3279,3.33637,250.7,-4.0,-25.2,10.6,4.34543433716991,10.018079798257318,-0.09999065486888314
6.199999999999989,99.1122,3.43273,249.9,-3.2,-11.8,10.6,4.1962036448999775,10.312675227035193,-0.09999028682482947
6.300000000000011,98.8996,3.34472,249.4,-2.7,5.4,10.6,4.035689243616115,10.609195192539838,-0.09998990439892053
6.399999999999977,98.6688,3.14288,249.4,-1.9,17.8,10.6,3.9218700539482936,10.90671554613343,-0.09998947487293575
6.5,98.4039,2.91283,249.0,-2.7,21.5,10.6,3.842569498922246,11.22740637886275,-0.09998896580224081
6.600000000000023,98.1484,2.75025,249.0,-2.4,23.5,10.6,3.8067278118362506,11.519909187875097,-0.09998846788519056
6.699999999999989,97.8767,2.66827,249.6,-0.9,25.1,10.6,3.815061626402508,11.811678795116192,-0.09998792929131084
6.800000000000011,97.5738,2.68501,249.8,-0.1,24.6,10.6,3.8405132045878756,12.130162424561355,-0.09998731738428712
6.899999999999977,97.2985,2.80448,249.9,0.2,23.5,10.6,3.936550727057913,12.388856295876867,-0.09998676279431229
7.0,97.0182,3.00425,249.9,0.9,22.5,10.6,4.06911509471748,12.63753807794566,-0.09998619005602438
7.100000000000023,96.7027,3.22793,249.4,0.1,21.8,10.6,4.253616334360343,12.902524674832463,-0.09998554005208526
7.199999999999989,96.3986,3.47367,248.5,-2.0,21.2,10.6,4.436987743623792,13.155582340302455,-0.09998489785316744
7.300000000000011,96.0854,3.70589,247.8,-4.2,20.4,10.5,4.721964414900945,13.3760069778914,1.5766416389340066e-05
7.399999999999977,95.7867,3.91591,247.9,-5.3,18.1,10.5,5.030051773525752,13.571374958501362,1.641394633011828e-05
7.5,95.4735,4.00144,248.5,-6.0,9.3,10.5,5.382271285283732,13.764650335210582,1.7117338575456387e-05
7.600000000000023,95.2097,3.92773,249.1,-8.2,-3.8,10.5,5.740217829209467,13.902924396830517,1.773003466531975e-05
7.699999999999989,94.9033,3.73522,250.4,-9.3,-17.4,10.5,6.088261939968728,14.09209107538523,1.8468932631687807e-05
7.800000000000011,94.6183,3.46135,250.9,-8.2,-25.7,10.5,6.390616427331306,14.27743169650596,1.9176943243159883e-05
7.899999999999977,94.3243,3.18385,250.8,-7.1,-26.5,10.5,6.6708803163382,14.481780698408476,1.9925069991266753e-05
8.0,94.054,3.02509,251.1,-7.3,-26.6,10.5,6.965837532907049,14.655161844240917,2.0638188381827405e-05
8.100000000000023,93.7639,2.93693,251.3,-7.5,-27.7,10.5,7.166332455486108,14.887905109754914,2.139995681860185e-05
8.199999999999989,93.4888,2.84798,251.5,-7.6,-28.7,10.5,7.318557384379567,15.123794864251504,2.2127814712114002e-05
8.300000000000011,93.1998,2.77853,251.6,-7.9,-29.1,10.5,7.43637645109934,15.388407214871457,2.2897350899331315e-05
8.399999999999977,92.9269,2.81874,251.7,-8.0,-29.1,10.5,7.507014899670224,15.65442482897228,2.3626674730437003e-05
8.5,92.6317,2.941,251.5,-7.3,-29.5,10.5,7.558079567868742,15.952265620295897,2.4424150893764818e-05
8.600000000000023,92.3631,3.1357,250.9,-5.3,-29.1,10.5,7.543612053691629,16.247639784838697,2.5151255494293423e-05
8.699999999999989,92.0791,3.33271,250.1,-3.0,-22.7,10.5,7.492346130115825,16.574699701493188,2.5931363518250095e-05
8.800000000000011,91.799,3.46545,249.6,-1.1,-12.5,10.5,7.42886607907419,16.902676069374913,2.6717064999015605e-05
8.899999999999977,91.4844,3.48118,249.3,-0.2,1.1,10.6,7.352374572858457,17.273793848630305,-0.0999723795924452
9.0,91.1853,3.44132,249.6,0.4,14.8,10.6,7.319766557672525,17.610560301037516,-0.09997149824577489
9.100000000000023,90.8634,3.37993,249.9,1.0,21.9,10.6,7.327138422590457,17.95590297948161,-0.0999705268091664
9.199999999999989,90.5444,3.38637,249.6,0.5,23.2,10.6,7.374807992365451,18.281779010726993,-0.0999695464550383
9.300000000000011,90.1931,3.42402,249.7,0.9,22.8,10.6,7.452482729687709,18.630237425342088,-0.09996844833583873
9.399999999999977,89.8524,3.56638,249.8,1.3,21.7,10.6,7.581597264700022,18.94597906152275,-0.09996736702386766
9.5,89.4866,3.70032,249.3,0.3,21.0,10.6,7.759080054790768,19.268983331182604,-0.09996618602653662
9.600000000000023,89.1294,3.89706,248.9,-1.2,21.5,10.6,7.972072526154006,19.56810678713149,-0.09996501202168684
9.699999999999989,88.7448,4.10302,248.9,-1.6,21.3,10.6,8.219765695035079,19.88269497752843,-0.099963725036043
9.800000000000011,88.38,4.33875,248.8,-1.9,20.9,10.6,8.516303805769708,20.15619628705715,-0.09996247633318056
9.899999999999977,88.0021,4.54725,248.7,-2.0,20.5,10.6,8.868925254566564,20.421510662383568,-0.09996115209268552
10.0,87.6264,4.77513,248.6,-2.4,19.2,10.6,9.24237459418529,20.676667843823623,-0.09995979746482853
10.100000000000023,87.2155,4.86048,248.6,-5.7,10.4,10.6,9.66274455824379,20.951978798677786,-0.09995827476524966
10.199999999999989,86.8486,4.77812,249.2,-10.4,-3.0,10.6,10.066528394884113,21.187455459090884,-0.09995687125235886
10.300000000000011,86.4761,4.53981,250.6,-11.6,-13.3,10.6,10.469168003821586,21.430462140582932,-0.09995540877389164
10.399999999999977,86.132,4.24607,251.4,-10.6,-22.6,10.6,10.824678967278935,21.66219677154794,-0.09995403085046828
10.5,85.7778,3.90222,251.3,-8.8,-26.5,10.6,11.16075484393696,21.913023781852726,-0.09995259414320845
10.600000000000023,85.4656,3.64847,251.2,-8.0,-26.8,10.6,11.445020964153585,22.139114840363703,-0.09995130815727382
10.699999999999989,85.1158,3.52511,251.2,-7.7,-27.2,10.5,11.697397924754398,22.417992152513385,5.012427195794089e-05
10.800000000000011,84.7813,3.38005,251.3,-7.6,-28.1,10.5,11.902698452899767,22.698511851961662,5.1497494768959484e-05
10.899999999999977,84.4286,3.26483,251.4,-7.6,-28.6,10.5,12.079560087034938,23.009334980072204,5.2944713393898724e-05
11.0,84.0751,3.23941,251.4,-7.5,-28.8,10.5,12.26065780680446,23.319409674252004,5.441648317283665e-05
11.100000000000023,83.7565,3.26939,251.6,-7.5,-28.8,10.6,12.331686862225416,23.63353256790971,-0.09994429258879123
11.199999999999989,83.4485,3.39155,251.3,-6.2,-29.5,10.6,12.364434938612217,23.950786335795335,-0.0999430460319557
11.300000000000011,83.114,3.59808,250.6,-3.9,-30.1,10.6,12.364106400156956,24.30908873721395,-0.09994169336220349
11.399999999999977,82.7951,3.86869,249.9,-1.7,-28.4,10.6,12.31787732047482,24.668315330759768,-0.0999404044781178
11.5,82.4435,4.12981,249.5,-0.2,-21.6,10.6,12.244746627632196,25.07339418359227,-0.09993896831983484
11.600000000000023,82.0948,4.26233,249.3,1.2,-9.5,10.6,12.164617445488334,25.478579993489355,-0.09993751737812495
11.699999999999989,81.713,4.26959,249.5,2.2,5.2,10.6,12.090565104515168,25.917734895378928,-0.09993589085263022
11.800000000000011,81.3417,4.22946,250.0,3.6,16.8,10.6,12.054631714132665,26.33116849922077,-0.09993426837243469
11.899999999999977,80.9438,4.13211,250.0,3.1,21.1,10.7,12.046559643861325,26.762740177031937,-0.1999324887615801
12.0,80.5505,4.15563,249.8,2.5,21.8,10.7,12.093411966266416,27.16778818971438,-0.19993068870403974
12.100000000000023,80.1177,4.23199,250.4,3.9,21.8,10.7,12.1843329707043,27.598037986809484,-0.1999286698607552
12.199999999999989,79.6947,4.37422,250.4,4.3,21.4,10.7,12.31264474375153,28.00287957006005,-0.19992665869817294
12.300000000000011,79.2177,4.51893,250.2,4.1,20.3,10.7,12.459926592368383,28.458422742328345,-0.19992435825203092
12.399999999999977,78.7734,4.71879,250.0,3.4,19.8,10.7,12.669004288872774,28.854015724473648,-0.19992216907273974
12.5,78.2993,4.9207,249.4,1.5,19.6,10.6,12.930489675392488,29.26090311102626,-0.09991978981226879
12.600000000000023,77.8372,5.11813,248.8,0.1,18.5,10.6,13.220766701972888,29.643558835625804,-0.0999174291148277
12.699999999999989,77.3529,5.2427,248.9,0.3,17.8,10.6,13.564601647603713,30.029406614694736,-0.09991490007942971
12.800000000000011,76.8841,5.40456,249.2,1.0,13.9,10.6,13.923363967932707,30.393198835733166,-0.09991240328522455
12.899999999999977,76.4147,5.43725,249.1,-2.5,1.8,10.6,14.308403873278166,30.748132090802454,-0.09990984864131924
13.0,75.9509,5.34033,249.9,-8.2,-10.1,10.6,14.683156973464556,31.10166015703087,-0.09990728034378193
13.100000000000023,75.4382,5.0822,251.1,-10.2,-21.0,10.6,15.09804900304654,31.493113113666173,-0.09990438930611845
13.199999999999989,74.9641,4.85478,251.3,-9.3,-26.0,10.6,15.426878556740183,31.876501714272756,-0.09990169673771998
13.300000000000011,74.4879,4.63547,251.4,-8.8,-26.6,10.6,15.720363148140127,32.27576758849091,-0.09989897201404041
13.399999999999977,74.0427,4.48383,251.6,-9.0,-27.2,10.5,15.959804151481414,32.66228706402954,0.00010359122115133346
13.5,73.5826,4.41793,251.7,-8.9,-27.7,10.5,16.170141911861144,33.07560513461857,0.00010625046626611123
13.600000000000023,73.1368,4.36401,251.6,-8.8,-28.4,10.5,16.366368520587258,33.479010493472806,0.0001088563003079912
13.699999999999989,72.6954,4.28568,251.6,-8.9,-28.8,10.5,16.488949172058202,33.90499852032605,0.00011142056812829537
13.800000000000011,72.2844,4.29225,251.6,-8.8,-28.8,10.5,16.5633898320536,34.316415412366084,0.00011381240145880156
13.899999999999977,71.8617,4.34263,251.6,-8.6,-28.9,10.5,16.5972020257344,34.75564618089224,0.00011627695976468289
14.0,71.4757,4.45588,251.6,-8.1,-29.2,10.5,16.598607806287426,35.16807904030222,0.0001185388934095144
14.100000000000023,71.0588,4.62788,251.0,-6.3,-28.2,10.6,16.55252856624452,35.63197032592344,-0.09987900947264805
14.199999999999989,70.6578,4.8106,249.8,-1.5,-19.6,10.6,16.48558937703109,36.0873459509043,-0.0998766256565986
14.300000000000011,70.2248,4.92842,249.1,3.1,-6.0,10.6,16.410936674945248,36.58087575257302,-0.09987401031629073
14.399999999999977,69.7856,4.97344,249.7,5.0,8.2,10.6,16.361584921967502,37.072114390553736,-0.09987130346098727
14.5,69.3144,4.97715,250.4,6.4,17.0,10.6,16.340679501236355,37.58740928019206,-0.09986834591401195
14.600000000000023,68.8549,5.00326,250.5,5.9,18.9,10.6,16.35683542231141,38.07590600875183,-0.09986540932409227
14.699999999999989,68.3623,5.01939,250.3,5.1,18.9,10.6,16.41147307665122,38.585152155753136,-0.09986221121875083
14.800000000000011,67.8564,5.10019,250.4,5.3,20.1,10.7,16.453428837018304,39.11419389869707,-0.19985888259650686
14.899999999999977,67.3218,5.19848,250.6,5.7,19.7,10.6,16.58337824127749,39.639026111591065,-0.09985530866821168
15.0,66.8063,5.36319,250.4,5.5,18.4,10.6,16.747717802005564,40.129355086528484,-0.0998518133397468
15.100000000000023,66.2577,5.55009,250.4,5.8,17.1,10.6,16.96225478339482,40.63512191761617,-0.09984804506101508
15.199999999999989,65.7187,5.76405,250.3,5.3,16.8,10.6,17.20786162055971,41.118084697032856,-0.09984429286792995
15.300000000000011,65.1652,5.90816,249.6,3.2,16.7,10.6,17.498382249431685,41.598584356461245,-0.09984038732372014
15.399999999999977,64.5984,6.09462,249.1,1.4,16.3,10.6,17.822843596484248,42.0800079094592,-0.09983632965795586
15.5,63.9926,6.22395,249.0,0.6,15.8,10.6,18.19986894341684,42.582845172989934,-0.09983192671073837
15.600000000000023,63.4136,6.26574,248.8,-2.8,6.8,10.5,18.579423694513757,43.056340607487485,0.00017234665604526356
15.699999999999989,62.8162,6.0994,249.4,-9.6,-6.6,10.5,18.98569995091733,43.53971874195388,0.00017682621799153253
15.800000000000011,62.2642,5.87897,251.1,-12.6,-18.8,10.5,19.3409075641812,43.99484804226091,0.00018101758722721684
15.899999999999977,61.7172,5.61706,251.6,-11.5,-25.4,10.5,19.66587317300134,44.45668268305968,0.0001852152387336048
16.0,61.1929,5.41369,251.6,-10.3,-26.4,10.5,19.945309512650255,44.91181226255689,0.00018927093043430432
16.100000000000023,60.6193,5.32783,251.8,-10.2,-27.0,10.5,20.240712334311425,45.41395471236382,0.00019375663388743192
16.19999999999999,60.108,5.19802,252.0,-10.4,-27.7,10.5,20.445885812688182,45.88375514001417,0.00019777326522785188
16.30000000000001,59.6184,5.09236,252.1,-10.5,-27.8,10.5,20.598673135106257,46.3501840840786,0.00020163569574194184
16.399999999999977,59.1391,5.03153,252.0,-10.6,-27.8,10.5,20.719465905646896,46.817766340963026,0.00020543884719259609
16.5,58.588,4.97781,252.0,-10.8,-28.0,10.5,20.872146678376694,47.3502089240681,0.00020986604881301218
16.600000000000023,58.087,4.98305,252.1,-11.1,-28.2,10.5,20.938111871336595,47.862219293091925,0.0002139014893067781
16.69999999999999,57.5754,5.01017,252.2,-11.1,-28.3,10.5,20.961160135497202,48.40248270279719,0.0002180504668327643
16.80000000000001,57.109,5.06137,252.2,-11.3,-28.4,10.5,20.935174005582144,48.91379855038237,0.00022186175900351657
16.899999999999977,56.6451,5.09943,252.3,-12.4,-26.5,10.5,20.856572111316247,49.44423754951531,0.00022568970589631476
17.0,56.1765,5.10527,251.3,-11.5,-17.0,10.5,20.76459889455564,49.98644895831782,0.00022961080684602564
17.100000000000023,55.7583,5.00726,249.7,-9.4,-0.3,10.6,20.651035066247402,50.4845541667525,-0.09976684134873182
17.19999999999999,55.3585,4.80131,248.9,-6.8,15.2,10.6,20.564209260633017,50.95338990026865,-0.09976339883542629
17.30000000000001,54.9283,4.59302,249.3,-3.7,22.1,10.6,20.514865430829097,51.44072210875326,-0.09975964990566233
17.399999999999977,54.5458,4.45653,248.9,-3.2,22.6,10.6,20.469432352345198,51.875546551639886,-0.09975627947182275
17.5,54.1067,4.35362,248.5,-3.3,22.2,10.6,20.507805174113248,52.33707692269519,-0.09975238825172994
17.600000000000023,53.6943,4.31821,248.5,-3.2,23.0,10.6,20.58441811547585,52.753518612469,-0.09974871289265863
17.69999999999999,53.2681,4.32619,248.6,-3.1,23.0,10.6,20.708192911462838,53.16476311033024,-0.09974489894232441
