time,distance(meters),speed(m/s), compass_heading(degrees), pitch(degrees), roll(degrees),height_above_takeoff(meters),North,East,Down
0.0,120.761,3.1532,236.6,-5.8,21.7,14.9,0.0,0.0,0.0
0.0999999999999659,120.732,3.46401,237.2,-5.1,19.9,14.9,0.30904374886726727,-0.1045653047149758,8.13537878729953e-09
0.19999999999998863,120.7,3.55699,238.0,-4.3,13.5,14.9,0.6540220067693047,-0.22077698510872257,3.5904616280113544e-08
0.2999999999999545,120.672,3.51866,238.4,-5.5,1.5,14.9,0.980998345018629,-0.332444650798234,8.40046119332527e-08
0.39999999999997726,120.622,3.31767,239.1,-5.7,-12.3,14.9,1.3159065068419435,-0.42237751515863664,1.497863078014916e-07
0.5,120.565,2.93072,239.2,-4.1,-23.6,14.9,1.622765753419333,-0.4915989347471021,2.257517521808694e-07
0.6000000000000227,120.492,2.49324,239.0,-2.9,-26.5,14.9,1.925929264879134,-0.541888319337416,3.1477582818073557e-07
0.6999999999999318,120.402,2.11495,239.4,-3.3,-26.2,14.9,2.192181580324357,-0.5560472373370975,4.022733589570393e-07
0.7999999999999545,120.284,1.90872,239.6,-4.3,-26.3,14.9,2.450166881424543,-0.5365042376640705,4.949550769239863e-07
0.8999999999999773,120.17,1.62849,239.6,-5.3,-27.6,14.9,2.650066335237095,-0.4968989355802328,5.719193794107014e-07
1.0,120.053,1.45573,239.3,-5.6,-28.5,14.9,2.8043946017726733,-0.4340390934995384,6.338451754572816e-07
1.1000000000000227,119.941,1.34902,239.3,-5.7,-28.4,14.9,2.9358664910156707,-0.3674600541230886,6.881888201526465e-07
1.1999999999999318,119.801,1.39367,239.5,-6.2,-28.7,14.9,3.0079117760793492,-0.24475698642064392,7.162042507946609e-07
1.2999999999999545,119.658,1.55237,239.7,-6.5,-29.1,14.9,3.037679977439276,-0.10251857100073791,7.274362443521198e-07
1.3999999999999773,119.498,1.8003,239.9,-6.8,-29.4,14.9,3.026745900405014,0.07510188555256903,7.202641743031535e-07
1.5,119.335,2.10609,240.0,-6.7,-29.7,14.9,2.989860726397703,0.2680802703810393,7.085069566592495e-07
1.6000000000000227,119.135,2.41493,240.0,-6.8,-29.6,15.0,2.93361558309782,0.5079496153973682,-0.09999930250308964
1.6999999999999318,118.954,2.66518,239.7,-6.4,-24.0,15.0,2.84156301807506,0.7437561021284849,-0.09999932131783296
1.7999999999999545,118.749,2.81776,238.1,-0.6,-10.6,14.9,2.7311733091991623,1.0128291754291092,6.676499344493436e-07
1.8999999999999773,118.538,2.79805,238.2,5.5,5.3,15.0,2.639146821301222,1.2811462378405167,-0.09999932328545569
2.0,118.279,2.66292,238.7,6.0,16.6,15.0,2.555771625396524,1.5981641831522264,-0.09999928569784933
2.1000000000000227,118.04,2.59246,238.4,4.6,19.9,15.0,2.5336954677359174,1.8683522779464552,-0.09999922057548294
2.199999999999932,117.774,2.56751,239.0,5.5,22.0,15.0,2.557583475786134,2.1480025597405312,-0.09999912366274955
2.2999999999999545,117.511,2.67334,239.7,7.0,22.8,15.0,2.6228123614130414,2.406032583258888,-0.09999900526133976
2.3999999999999773,117.204,2.79944,239.6,7.1,21.7,15.0,2.711995691720504,2.7025376205025715,-0.09999884924474078
2.5,116.922,3.04328,239.4,7.2,20.3,15.0,2.8594931304147093,2.9465996174510227,-0.09999867663821149
2.6000000000000227,116.614,3.33648,239.0,7.2,19.0,15.0,3.0573439689201334,3.1966565995724405,-0.09999846356808173
2.699999999999932,116.305,3.61283,238.4,6.0,18.7,14.9,3.2895140134371155,3.4344943670965424,1.7752879353238882e-06
2.7999999999999545,115.975,3.85753,237.8,4.0,18.6,14.9,3.5566679592539163,3.680045489140201,2.0564210110318726e-06
2.8999999999999773,115.641,4.12613,237.7,3.2,16.6,14.9,3.8708118589860776,3.909940820997257,2.3767054393442066e-06
3.0,115.282,4.31531,237.8,3.1,10.9,14.9,4.234997102420021,4.146518450218259,2.7574083689696494e-06
3.1000000000000227,114.932,4.36562,237.7,-0.3,-1.3,14.9,4.596668426975821,4.374748867448413,3.1609786965702824e-06
3.199999999999932,114.558,4.23756,238.6,-5.9,-15.7,14.9,4.971449680328711,4.6240114399289975,3.6184284049056714e-06
3.2999999999999545,114.205,4.04905,239.7,-8.1,-24.7,14.9,5.3192540395637105,4.862673916732803,4.078420735798005e-06
3.3999999999999773,113.834,3.86682,239.8,-7.8,-26.0,14.9,5.620811089577128,5.139910685815886,4.554433239878364e-06
3.5,113.477,3.75491,239.9,-7.9,-26.1,14.9,5.879247313614661,5.4204695350425816,5.020495477570108e-06
3.6000000000000227,113.097,3.73076,240.0,-7.9,-26.9,14.8,6.120250773969801,5.732996602921766,0.10000552240960214
3.699999999999932,112.732,3.68537,240.1,-8.1,-28.1,14.8,6.365747595237355,6.027500511742741,0.10000603406945396
3.7999999999999545,112.355,3.67993,240.2,-8.3,-28.5,14.8,6.528267964888977,6.368994674639867,0.10000652963873025
3.8999999999999773,111.991,3.74289,240.2,-8.3,-28.7,14.8,6.644165381429765,6.715452871352893,0.10000700623914849
4.0,111.603,3.83702,240.3,-8.2,-28.9,14.8,6.724550193547909,7.102012768324993,0.10000750824755711
4.100000000000023,111.222,3.96604,240.4,-8.4,-29.4,14.8,6.787025558562341,7.487908249606094,0.10000801698515982
4.199999999999932,110.835,4.10447,240.7,-9.5,-29.6,14.8,6.786124343256899,7.907788237566155,0.1000085209036472
4.2999999999999545,110.471,4.17671,240.4,-10.9,-23.0,14.8,6.7476473642815975,8.317511109535833,0.10000900175679339
4.399999999999977,110.097,4.09478,239.1,-10.3,-7.0,14.8,6.686608766390368,8.747975989521935,0.10000951233606159
4.5,109.74,3.89843,238.1,-6.3,10.3,14.8,6.628000279891962,9.160471094835312,0.10001002816657234
4.600000000000023,109.378,3.69551,238.7,-1.1,20.7,14.8,6.621640741104904,9.555737190607697,0.10001060115420213
4.699999999999932,109.039,3.52904,239.0,1.2,22.8,14.9,6.6546196911952435,9.910244936483465,1.1176284583580554e-05
4.7999999999999545,108.684,3.49639,238.4,1.5,21.9,14.9,6.730531562953073,10.263774970533703,1.18142834844015e-05
4.899999999999977,108.34,3.52874,238.6,2.6,22.3,14.9,6.838754433540478,10.591545490884204,1.2465608506317949e-05
5.0,107.974,3.57875,238.4,2.5,22.2,14.9,6.949725318070283,10.942868386256958,1.3178198724705936e-05
5.100000000000023,107.63,3.70401,238.5,2.6,22.4,14.9,7.133275999055243,11.238991252120863,1.3895317282131003e-05
5.199999999999932,107.273,3.85709,238.4,2.5,21.7,14.8,7.370378693985501,11.527721293395333,0.10001468180496342
5.2999999999999545,106.927,4.03839,238.0,1.1,19.1,14.8,7.638882289403856,11.79003521674872,0.10001547840768987
5.399999999999977,106.578,4.1063,237.2,-2.3,14.8,14.8,7.940875821162798,12.04283343895014,0.1000163205414566
5.5,106.233,4.13026,237.2,-5.5,4.1,14.8,8.261290263576544,12.28419145861067,0.10001718835220474
5.600000000000023,105.875,4.02734,238.1,-8.3,-7.4,14.8,8.597192745030544,12.533461325701786,0.10001811801901495
5.699999999999932,105.537,3.85314,239.2,-8.7,-18.4,14.8,8.90202382206166,12.773482867909951,0.1000190140882733
5.7999999999999545,105.175,3.69722,239.4,-7.4,-25.7,14.8,9.201292557812803,13.042608845615472,0.10001998470381857
5.899999999999977,104.839,3.59451,239.5,-6.9,-27.4,14.8,9.447740218112422,13.305991878055563,0.10002088974558898
6.0,104.485,3.5881,239.7,-6.8,-27.8,14.8,9.671354647544646,13.59741784179863,0.10002184032745465
6.100000000000023,104.144,3.57194,239.8,-7.2,-28.6,14.8,9.855139462359173,13.89188335174048,0.10002275750953249
6.199999999999932,103.781,3.5794,239.9,-7.3,-29.3,14.8,10.079979096895716,14.19297004217812,0.10002377216707092
6.2999999999999545,103.429,3.65445,239.8,-7.4,-30.1,14.8,10.19718283479401,14.525406569708583,0.10002470515606632
6.399999999999977,103.054,3.75305,239.8,-7.6,-30.0,14.8,10.275247624457972,14.898601589573428,0.1000256920344178
6.5,102.692,3.91568,239.8,-7.7,-29.7,14.8,10.309758161432676,15.276012266052797,0.10002663965397929
6.600000000000023,102.307,4.06025,240.0,-7.8,-29.5,14.8,10.305412932048544,15.693707946285803,0.10002764509404916
6.699999999999932,101.931,4.22216,240.4,-8.3,-29.5,14.8,10.277072838301665,16.11185424820476,0.10002864039867809
6.7999999999999545,101.558,4.45345,240.6,-8.7,-29.3,14.8,10.20053789212734,16.54735179851283,0.10002963221112982
6.899999999999977,101.196,4.57513,240.1,-9.5,-23.8,14.8,10.097612670648079,16.98219261889453,0.10003060961161925
7.0,100.81,4.53935,238.7,-7.5,-6.5,14.8,9.97755533137147,17.450918654141674,0.10003168289047082
7.100000000000023,100.437,4.33242,238.4,-2.1,12.1,14.8,9.868903071614437,17.902087325789722,0.1000327633696676
7.199999999999932,100.057,4.1202,238.7,1.0,19.2,14.8,9.801418316267318,18.344122120376753,0.1000339136792947
7.2999999999999545,99.6952,3.94487,238.2,1.2,20.6,14.8,9.775875393561467,18.74846846602859,0.10003504797186213
7.399999999999977,99.3143,3.77628,238.8,2.5,24.9,14.9,9.796452851152777,19.154487517171823,3.628569614377852e-05
7.5,98.9485,3.72908,238.9,2.8,25.2,14.9,9.83608674055419,19.53597633109031,3.7501086248781235e-05
7.600000000000023,98.5722,3.72785,239.3,3.6,23.1,14.9,9.93657755396184,19.903000615985096,3.879164428521875e-05
7.699999999999932,98.2152,3.72501,238.9,3.5,23.3,14.9,10.073517149840125,20.23311542248547,4.004464022600018e-05
7.7999999999999545,97.8393,3.85392,238.7,3.6,23.1,14.8,10.262202764028366,20.561740571533992,0.10004139777029675
7.899999999999977,97.5031,4.04519,239.1,4.7,21.2,14.8,10.455783344242862,20.844918504042198,0.10004263190609919
8.0,97.1137,4.25586,239.2,5.0,18.1,14.8,10.733860379479964,21.1499455633043,0.1000440986690938
8.100000000000023,96.7342,4.48227,239.0,5.0,16.5,14.8,11.03278551658832,21.435574693052374,0.10004556309422252
8.199999999999932,96.331,4.6212,237.1,-0.4,16.0,14.8,11.378345212554924,21.727611113409758,0.10004715870502423
8.299999999999955,95.9489,4.63312,237.3,-4.3,2.4,14.8,11.726577706685696,21.99591949097258,0.10004871185626474
8.399999999999977,95.5572,4.4315,239.0,-9.2,-17.6,14.7,12.06332695691597,22.280074197643422,0.20005032681420687
8.5,95.1872,4.22627,240.2,-10.0,-26.1,14.7,12.376330008517952,22.55107845699042,0.20005188004713936
8.600000000000023,94.8038,3.97025,239.9,-8.0,-26.0,14.7,12.66668767168757,22.846276620305453,0.20005350187844861
8.699999999999932,94.4482,3.82464,239.7,-7.5,-26.8,14.7,12.90034358019523,23.135059859491626,0.20005501147581217
8.799999999999955,94.1134,3.89102,239.6,-7.2,-27.9,14.7,13.110712536929771,23.410951960193447,0.20005644820186586
8.899999999999977,93.7448,3.88946,239.7,-7.4,-28.8,14.7,13.28156985637894,23.739859872680174,0.2000580183160574
9.0,93.3296,3.86366,239.7,-7.6,-28.8,14.7,13.43847364868478,24.124853602383652,0.20005979026872733
9.100000000000023,92.9351,3.93037,239.9,-7.9,-29.0,14.7,13.55198210452511,24.50531870916471,0.20006148074142782
9.199999999999932,92.4678,3.95406,240.1,-8.2,-29.8,14.7,13.698772641193745,24.95083528991902,0.20006352146969508
9.299999999999955,92.0868,4.11297,240.0,-7.9,-30.2,14.8,13.72918067046685,25.35093559095673,0.1000651621510329
9.399999999999977,91.692,4.28755,240.0,-7.5,-29.7,14.8,13.714933395812519,25.78474513449342,0.10006687053035179
9.5,91.3228,4.48904,240.4,-7.7,-29.0,14.8,13.660067615826215,26.208099785050727,0.10006847558818688
9.600000000000023,90.9581,4.74801,240.1,-7.2,-29.5,14.8,13.530483808989711,26.658642204960707,0.10007006394051032
9.699999999999932,90.5834,4.92253,239.3,-4.8,-23.9,14.8,13.411209986625309,27.11661536979191,0.10007173929586965
9.799999999999955,90.1734,5.06113,238.0,0.3,-13.7,14.8,13.27528379140821,27.621273283429744,0.10007361670560044
9.899999999999977,89.7687,5.08561,237.8,5.5,0.3,14.8,13.157743837685867,28.113391277825542,0.10007552093657068
10.0,89.3278,5.02703,238.7,7.2,13.7,14.8,13.06642092381938,28.634720553814546,0.10007764986926748
10.100000000000023,88.8803,4.9289,238.4,5.8,17.7,14.9,12.981348378776872,29.16157944599393,7.985929871878739e-05
10.199999999999932,88.4159,4.85767,238.7,5.8,19.7,14.9,12.97077123417133,29.674920258102865,8.220345640630455e-05
10.299999999999955,87.9628,4.81543,239.8,7.6,23.1,14.9,12.997382623537007,30.1596987508044,8.452825811122722e-05
10.399999999999977,87.4751,4.77656,240.3,8.3,23.0,14.8,13.069013160470831,30.66263729286503,0.10008707168113773
10.5,86.9899,4.81882,239.8,7.4,22.2,14.8,13.13224109771671,31.16685170418807,0.1000896441315886
10.600000000000023,86.5056,4.95728,239.5,7.1,20.9,14.8,13.29871851199754,31.623747209373,0.10009223719129334
10.699999999999932,86.0299,5.0712,239.7,7.4,19.2,14.8,13.502705182949198,32.0541423592756,0.10009481383676988
10.799999999999955,85.5125,5.20772,239.4,6.6,17.9,14.8,13.764335684855439,32.50450028314456,0.10009765027435247
10.899999999999977,85.0181,5.34904,238.5,4.5,18.0,14.8,14.046042718818931,32.920522381521344,0.10010039911661739
11.0,84.5016,5.40632,237.6,1.5,19.0,14.7,14.374834872866277,33.3398505844472,0.20010331008010684
11.100000000000023,84.0064,5.54953,237.5,0.7,19.1,14.7,14.723336808558612,33.72732546091287,0.20010614483950473
11.199999999999932,83.482,5.61086,237.4,-0.5,16.5,14.7,15.124723434018122,34.123575003238784,0.2001091927942671
11.299999999999955,83.0147,5.57615,237.2,-6.3,1.8,14.7,15.52315674163193,34.459469681045825,0.20011195814804772
11.399999999999977,82.5015,5.43638,238.9,-10.2,-16.3,14.7,15.94926347722523,34.83393848752647,0.2001150448259823
11.5,82.0184,5.25367,239.6,-9.4,-25.2,14.7,16.32122569814599,35.19996097484664,0.2001179963207056
11.600000000000023,81.5128,5.08816,239.7,-8.2,-26.0,14.7,16.667655950236874,35.601854294187106,0.2001211245212451
11.699999999999932,81.0322,4.93936,239.8,-8.1,-26.7,14.7,16.966434534419463,35.99730980597943,0.20012413249612582
11.799999999999955,80.5154,4.9592,239.8,-8.1,-27.6,14.7,17.295767398617315,36.419250118433446,0.20012741265816558
11.899999999999977,80.0351,4.91779,239.9,-8.3,-28.4,14.7,17.532149054982494,36.84132822719525,0.20013048322882376
12.0,79.5325,4.8591,240.0,-8.6,-28.5,14.8,17.74081740568452,37.29943048947531,0.10013372210079119
12.100000000000023,79.0682,4.87677,240.1,-8.8,-28.7,14.8,17.890561630713933,37.740998390767004,0.10013673663027767
12.199999999999932,78.6394,4.8858,240.2,-8.9,-28.9,14.8,17.99492244687069,38.16316859148803,0.10013954137299486
12.299999999999955,78.1714,4.96528,240.3,-9.1,-29.1,14.8,18.067998272425825,38.64156977395257,0.10014262625271364
12.399999999999977,77.656,5.0464,240.5,-10.1,-29.0,14.8,18.120853252418097,39.18056259233902,0.1001460625268269
12.5,77.176,5.08894,240.3,-11.3,-24.1,14.9,18.134843943471317,39.69818035552717,0.00014929816014230823
12.600000000000023,76.6033,5.02776,238.9,-10.5,-8.7,14.9,18.160161816495794,40.31254234136421,0.00015322036246701032
12.699999999999932,76.1525,4.81708,237.8,-6.3,10.4,14.9,18.159184276579502,40.805858776758676,0.00015635228188060069
12.799999999999955,75.6922,4.67492,238.7,-1.2,20.3,14.9,18.184686648792237,41.29850304875906,0.0001595921115029597
12.899999999999977,75.2473,4.55734,238.5,0.3,21.2,14.9,18.242872681366684,41.76010297458788,0.00016276176505591877
13.0,74.7572,4.51167,238.0,0.3,21.5,14.9,18.30401206650689,42.27011351057408,0.00016629447253002638
13.100000000000023,74.3076,4.50215,238.1,1.0,23.1,15.0,18.4333073905323,42.70545795554172,-0.09983043322739604
13.199999999999932,73.8388,4.52614,238.1,1.2,22.7,15.0,18.608861347747286,43.14120628204351,-0.09982699291233565
13.299999999999955,73.4013,4.60629,238.1,1.3,21.7,14.9,18.817477108544047,43.52768017029186,0.0001762441648729407
13.399999999999977,72.9501,4.66747,237.9,0.7,21.1,14.9,19.080465906768936,43.90487558433962,0.00017961049633008486
13.5,72.5641,4.75366,237.1,-1.3,21.6,14.9,19.301896881903378,44.229315120945756,0.00018251894498355625
13.600000000000023,72.1228,4.86537,236.7,-2.6,21.2,14.9,19.64989044196137,44.55820640919586,0.0001858723044136923
13.699999999999932,71.701,4.99476,236.7,-2.4,20.9,14.9,20.021029204728666,44.856083914535844,0.0001891171585217677
13.799999999999955,71.2516,5.14382,237.3,-0.9,17.0,14.9,20.450239400791567,45.159719398814204,0.0001926248164032529
13.899999999999977,70.8505,5.22638,237.6,0.0,3.8,14.9,20.883835712043705,45.40985801771902,0.0001958101113288535
14.0,70.3978,5.19464,237.8,-1.0,-12.7,14.9,21.330900483108415,45.711904888687485,0.0001994495818689046
14.100000000000023,69.9569,5.11219,238.4,-2.5,-24.4,14.9,21.731784419624702,46.021821813280226,0.0002030343084697961
14.199999999999932,69.4817,4.98893,238.8,-3.3,-27.0,14.8,22.114449597124697,46.3774986638808,0.1002069276999702
14.299999999999955,69.0271,4.91479,239.0,-4.1,-27.1,14.8,22.445351611003858,46.73298552638904,0.10021068205999839
14.399999999999977,68.5485,4.84861,239.2,-4.9,-27.8,14.8,22.759008948648386,47.122067369184975,0.10021465600945056
14.5,68.0862,4.83059,239.3,-5.2,-28.9,14.8,23.023720120190625,47.513830000386704,0.10021851376710522
14.600000000000023,67.5923,4.81157,239.4,-5.5,-29.1,14.8,23.265459549699816,47.949333322112096,0.10022265067137681
14.699999999999932,67.1194,4.82243,239.4,-5.7,-29.4,14.8,23.474116440320138,48.37561136143934,0.10022663375221441
14.799999999999955,66.618,4.92516,239.4,-5.8,-29.6,14.8,23.625121196768813,48.85627617156248,0.10023085363436657
14.899999999999977,66.1355,5.04776,239.5,-5.7,-29.6,14.8,23.733923999960695,49.33372602321139,0.10023493024791819
15.0,65.6225,5.20411,239.5,-5.8,-29.7,14.8,23.81279704563387,49.8566463912746,0.10023928868406884
15.100000000000023,65.1221,5.37704,239.6,-5.8,-30.0,14.8,23.851571768327815,50.382869928760734,0.10024356407062385
15.199999999999932,64.5585,5.48548,239.5,-6.7,-27.6,14.8,23.856270413738674,50.99239744373959,0.10024842196143169
15.299999999999955,64.0674,5.55147,239.0,-6.5,-16.0,14.8,23.837681821613312,51.53376151884409,0.10025269784591373
15.399999999999977,63.5772,5.5036,238.3,-3.5,-0.3,14.8,23.812256582224094,52.07801622022637,0.1002570193999226
15.5,63.0891,5.39989,238.5,0.4,13.7,14.8,23.81624696802845,52.608192058957805,0.10026138060560541
15.600000000000023,62.5445,5.28884,239.4,3.8,21.3,14.8,23.853580229624228,53.1863506475013,0.10026631117753482
15.699999999999932,62.0225,5.19714,239.1,3.8,21.6,14.9,23.94173515668694,53.71817644534918,0.0002710950072053464
15.799999999999955,61.4724,5.21225,238.5,3.1,20.3,14.9,24.071603423443083,54.262693779354855,0.0002761898465095669
15.899999999999977,60.9528,5.25501,238.8,3.7,21.0,14.9,24.22824898844597,54.762061323056784,0.00028104935284645194
16.0,60.4003,5.29272,238.9,4.0,21.1,14.9,24.36598557563891,55.306009626592264,0.00028626477276283424
16.100000000000023,59.883,5.39326,238.7,3.1,20.2,14.9,24.599649200796023,55.76894466714811,0.00029119107728092786
16.199999999999932,59.3379,5.49126,237.9,1.3,19.2,14.8,24.89205137519415,56.23654463435163,0.10029643412966571
16.299999999999955,58.8284,5.59898,237.5,0.0,19.4,14.8,25.205486747525562,56.65606312978012,0.10030137732797151
16.399999999999977,58.3646,5.70044,237.5,0.6,19.6,14.8,25.545231209847472,57.014443884444944,0.10030592490581292
16.5,57.8487,5.86099,237.7,1.4,19.1,14.8,25.93832718213683,57.407244020300375,0.10031103677965625
16.600000000000023,57.2787,5.98753,237.7,1.2,17.8,14.8,26.39897394044789,57.8310535343425,0.10031675968903997
16.699999999999932,56.7415,6.041,237.5,-0.2,9.0,14.8,26.86244215651541,58.219316844764705,0.10032222866387208
16.799999999999955,56.1855,6.0413,237.7,-3.2,-5.2,14.8,27.356434265239013,58.6167251666234,0.10032797432120688
16.899999999999977,55.6122,5.92038,238.7,-5.7,-19.3,14.8,27.84506350760949,59.03694122227103,0.10033396782296755
17.0,55.0696,5.72181,239.1,-5.6,-26.9,14.8,28.280150692542435,59.44724479823876,0.10033969655100528
17.100000000000023,54.5523,5.60416,239.2,-5.0,-27.5,14.7,28.653561309549247,59.85585619939812,0.20034518752610175
17.199999999999932,54.0066,5.53655,239.4,-5.3,-27.7,14.7,29.003325963728045,60.30518880449254,0.20035100219125823
17.299999999999955,53.5086,5.49523,239.5,-5.6,-28.6,14.7,29.313717330912286,60.719139685014085,0.20035635128087392
17.399999999999977,52.9529,5.48426,239.3,-5.4,-28.8,14.7,29.595545923361392,61.206596258245185,0.20036231152041672
17.5,52.4117,5.50248,239.3,-5.4,-29.2,14.7,29.829315458202394,61.69716899001054,0.20036812666753434
17.600000000000023,51.8315,5.51378,239.3,-5.4,-29.4,14.7,30.035819508787668,62.24022291750451,0.20037437019589177
17.699999999999932,51.264,5.5391,239.4,-5.4,-29.5,14.7,30.242309051147934,62.769747985655286,0.20038053433435188
17.799999999999955,50.6895,5.654,239.4,-5.3,-29.6,14.7,30.353291862133116,63.343800819395526,0.20038673301857912
17.899999999999977,50.1413,5.8043,239.3,-5.0,-29.9,14.7,30.419401301021896,63.90749442710496,0.20039266691965096
