time,distance(meters),speed(m/s), compass_heading(degrees), pitch(degrees), roll(degrees),height_above_takeoff(meters),North,East,Down
0.0,8.73341,2.73729,245.4,-18.4,20.4,10.6,0.0,0.0,0.0
0.09999999999999432,9.00096,3.00972,245.8,-18.1,19.2,10.6,0.2265749747267981,-0.1845737596760164,6.452159903580501e-09
0.20000000000001705,9.2689,3.30932,246.0,-19.1,17.7,10.6,0.44597446243912386,-0.3717397713244284,2.639742466281625e-08
0.30000000000001137,9.59793,3.58929,246.7,-20.6,14.6,10.6,0.7135738948862427,-0.6007269524498337,6.919114658998637e-08
0.4000000000000057,9.93693,3.70419,248.7,-21.8,4.2,10.6,0.9772536476843561,-0.8415923930638789,1.3031646900474314e-07
0.5,10.3019,3.53926,251.4,-17.6,-13.7,10.6,1.246050801316494,-1.1080997087475146,2.1794169047240075e-07
0.5999999999999943,10.6307,3.13868,251.5,-11.4,-26.2,10.6,1.4691626808004645,-1.3586640095070757,3.1491583307730053e-07
0.700000000000017,10.9666,2.61265,251.1,-8.2,-28.3,10.6,1.67375469423134,-1.628095295658993,4.278407516045135e-07
0.8000000000000114,11.2174,2.19975,251.5,-7.8,-27.1,10.6,1.8073922648243637,-1.8405370694637002,5.234573889900673e-07
0.9000000000000057,11.4344,1.85371,251.9,-7.9,-27.4,10.7,1.9031138599553103,-2.036296027924397,-0.09999938862740676
1.0,11.6072,1.54606,252.0,-7.7,-28.4,10.6,1.9597939099918522,-2.203872805385518,6.832885404151057e-07
1.0999999999999943,11.7938,1.57078,251.8,-7.8,-28.5,10.7,2.015328315104158,-2.387941572937033,-0.09999923310335224
1.200000000000017,11.908,1.45562,251.8,-7.7,-28.5,10.7,1.9980473791653637,-2.5302287559746657,-0.0999991835782047
1.3000000000000114,11.9904,1.46424,251.5,-7.3,-29.1,10.7,1.935035626549206,-2.6611722640534845,-0.09999915067413923
1.4000000000000057,12.033,1.61871,251.2,-6.8,-29.5,10.7,1.8342740260719372,-2.766000413045081,-0.09999913497621837
1.5,12.0214,1.76561,251.3,-6.9,-29.1,10.7,1.6970339553110099,-2.8270308551599315,-0.09999914662507992
1.5999999999999943,11.9926,2.07041,251.8,-8.5,-29.3,10.7,1.520399159677974,-2.886940600135382,-0.09999916395233077
1.700000000000017,11.9367,2.38822,253.2,-14.4,-27.6,10.7,1.300973669440377,-2.934482368685708,-0.09999919308152982
1.8000000000000114,11.8809,2.61487,253.3,-22.0,-17.8,10.7,1.0644738191547602,-2.985525674404819,-0.09999921207081208
1.9000000000000057,11.8252,2.61753,250.4,-25.6,-1.5,10.7,0.801127112601435,-3.043466073553729,-0.09999922312759718
2.0,11.8257,2.54046,247.6,-24.2,13.2,10.7,0.5702489045554183,-3.1424969055985077,-0.09999920100912563
2.0999999999999943,11.8722,2.42329,246.7,-20.8,19.5,10.7,0.363457293958982,-3.2757831092753076,-0.09999914868570367
2.200000000000017,11.9616,2.39495,245.9,-19.8,20.7,10.7,0.20178103636528416,-3.432927993126772,-0.09999907262769937
2.3000000000000114,12.0975,2.41046,245.5,-19.1,20.6,10.7,0.0674883629269356,-3.626063741262083,-0.09999896882822876
2.4000000000000057,12.2198,2.51524,245.5,-18.3,21.0,10.7,-0.028833048166327493,-3.78894297774957,-0.09999887478692893
2.5,12.4397,2.67478,245.8,-17.3,21.4,10.7,-0.09071419112737172,-4.04155501991924,-0.09999871910762442
2.5999999999999943,12.6868,2.89262,246.1,-16.4,21.4,10.7,-0.11803083974303685,-4.310250395027369,-0.09999854268109917
2.700000000000017,12.985,3.13513,246.2,-15.9,20.8,10.6,-0.11560636501316292,-4.622405457100037,1.674391544151388e-06
2.8000000000000114,13.2929,3.38101,246.8,-17.0,17.9,10.6,-0.12039563963122844,-4.946245080963344,1.917357395971042e-06
2.9000000000000057,13.651,3.4551,248.6,-17.3,4.7,10.6,-0.059575763034602686,-5.302478563264873,2.2021276705093407e-06
3.0,13.9842,3.36006,250.7,-13.3,-15.1,10.6,-0.008387495267269774,-5.635331625833203,2.4880065301949306e-06
3.0999999999999943,14.2961,3.12897,250.6,-8.2,-27.3,10.6,0.014155180646588206,-5.95416809269824,2.7775163858149987e-06
3.200000000000017,14.5583,2.88718,250.2,-6.1,-28.1,10.6,-0.010122314073762642,-6.2341040485969765,3.04470904350599e-06
3.3000000000000114,14.8297,2.71622,250.9,-5.8,-27.1,10.7,-0.07011829312611992,-6.532720988460358,-0.0999966570428117
3.4000000000000057,15.0622,2.64357,251.2,-5.9,-28.1,10.7,-0.15752241765174715,-6.796890576924429,-0.09999637869394246
3.5,15.2783,2.64112,251.2,-6.0,-28.9,10.6,-0.28058653037627435,-7.051384113611038,3.8999236083581135e-06
3.5999999999999943,15.5314,2.69398,251.2,-6.0,-29.2,10.6,-0.3888799356511165,-7.3382764232644675,4.229181675946547e-06
3.700000000000017,15.6779,2.83546,251.3,-6.3,-29.3,10.6,-0.590926068265825,-7.534654160531979,4.473525267167933e-06
3.8000000000000114,15.7868,2.99803,251.4,-6.5,-29.3,10.6,-0.8189958948443297,-7.694103608954805,4.689674259539256e-06
3.9000000000000057,15.8685,3.14979,251.4,-6.5,-29.3,10.6,-1.096669636630144,-7.83078173044837,4.898473508985202e-06
4.0,15.9261,3.37062,251.6,-7.1,-29.5,10.6,-1.3899079660800067,-7.939877241852903,5.0892293328441696e-06
4.099999999999994,15.9495,3.55127,251.7,-8.6,-27.5,10.6,-1.7123452734649574,-8.012420583842264,5.258183119805082e-06
4.200000000000017,15.9788,3.65492,251.3,-11.0,-19.1,10.7,-2.049220630902434,-8.085699117223697,-0.09999454920587214
4.300000000000011,16.0019,3.62283,250.3,-12.9,-7.8,10.6,-2.411223128129527,-8.147767379140202,5.6561726653470146e-06
4.400000000000006,16.0475,3.4491,248.5,-14.3,5.3,10.6,-2.7515644702308864,-8.222313529824634,5.890209225478671e-06
4.5,16.1141,3.10713,247.1,-14.4,17.3,10.6,-3.101407920444874,-8.311015676485622,6.166306282695544e-06
4.599999999999994,16.2253,2.83286,246.3,-14.1,22.3,10.6,-3.374689714953288,-8.43417077012584,6.466470660493329e-06
4.700000000000017,16.3686,2.61839,245.6,-14.4,22.9,10.6,-3.611368063935871,-8.584030238841294,6.79748890397569e-06
4.800000000000011,16.5306,2.48167,245.4,-14.3,24.2,10.6,-3.795874782771058,-8.74886947965769,7.128444675208456e-06
4.900000000000006,16.7005,2.46923,245.6,-14.2,24.4,10.6,-3.9663061114283655,-8.919537597541261,7.468768310259222e-06
5.0,16.9154,2.52714,245.7,-13.9,23.8,10.6,-4.0696889158906,-9.134270681628005,7.83774392520975e-06
5.099999999999994,17.1715,2.63691,246.0,-13.5,22.8,10.6,-4.133992087664958,-9.390151460056337,8.251303203588023e-06
5.200000000000017,17.4351,2.81791,246.2,-13.5,22.0,10.6,-4.151781732438936,-9.654079593361075,8.655733526374831e-06
5.300000000000011,17.731,2.99532,246.7,-13.7,20.6,10.5,-4.125110061620484,-9.950955108745458,0.10000909407967629
5.400000000000006,18.03,3.12892,248.5,-14.6,9.1,10.5,-4.078694855886862,-10.251019172555779,0.10000953954725444
5.5,18.3525,3.07899,250.7,-13.7,-11.5,10.5,-4.037279806994832,-10.574469391551855,0.10001003961320132
5.599999999999994,18.6485,2.8903,251.3,-10.4,-25.5,10.5,-4.0235517579602895,-10.871222879972441,0.1000105295138003
5.700000000000017,18.9377,2.6933,250.7,-7.6,-27.8,10.5,-4.049299891450911,-11.16083206869265,0.10001104636063407
5.800000000000011,19.2146,2.571,251.1,-6.9,-27.1,10.5,-4.114778843316646,-11.437702928041453,0.10001157873549937
5.900000000000006,19.4599,2.4898,251.6,-7.0,-27.5,10.5,-4.211820431231887,-11.682323119177273,0.10001208494442126
6.0,19.6704,2.52877,251.6,-6.9,-28.4,10.5,-4.33528990737582,-11.891004001783546,0.100012553743281
6.099999999999994,19.8673,2.6182,251.5,-7.0,-28.3,10.5,-4.49776332717958,-12.084214441533902,0.10001302869544171
6.200000000000017,20.0521,2.71914,251.7,-7.4,-28.7,10.6,-4.631063167750927,-12.26523842956856,1.3469538452604013e-05
6.300000000000011,20.2018,2.91805,251.9,-7.5,-29.3,10.6,-4.862821829142087,-12.405716047329951,1.391401098205236e-05
6.400000000000006,20.3397,3.14452,251.7,-7.1,-29.4,10.6,-5.122000917107183,-12.530305093209666,1.436066306315098e-05
6.5,20.4888,3.37575,251.7,-7.1,-29.5,10.6,-5.440080948615739,-12.6586267543683,1.4878353769454122e-05
6.599999999999994,20.6158,3.64229,251.5,-7.9,-29.1,10.6,-5.778056680797288,-12.758208819374582,1.53754850265031e-05
6.700000000000017,20.738,3.77222,251.3,-10.7,-21.2,10.6,-6.149370295470504,-12.844099836256639,1.5895483369554597e-05
6.800000000000011,20.8586,3.73164,250.0,-13.9,-4.3,10.6,-6.506461855670337,-12.923785852221101,1.6410898810104158e-05
6.900000000000006,20.9992,3.47932,248.0,-14.4,12.5,10.6,-6.8618734256983,-13.018266490443509,1.697799397337718e-05
7.0,21.1411,3.15619,247.3,-13.4,21.2,10.6,-7.176599615214595,-13.114824323743733,1.752331372717464e-05
7.099999999999994,21.3257,2.88528,246.4,-13.5,23.1,10.6,-7.458429622976416,-13.25626431392137,1.813919706039613e-05
7.200000000000017,21.5143,2.64177,246.5,-11.8,24.0,10.6,-7.679015963867174,-13.409554822514334,1.8724019630766975e-05
7.300000000000011,21.7212,2.50967,246.7,-10.1,24.7,10.6,-7.856715518081362,-13.587909657966698,1.9317234977833664e-05
7.400000000000006,21.9354,2.42006,246.7,-9.7,24.8,10.6,-7.989670836688251,-13.78124617235586,1.9896558166809797e-05
7.5,22.1657,2.38766,246.7,-9.8,24.1,10.5,-8.126686555501626,-13.989896411038647,0.1000205253497759
7.599999999999994,22.4086,2.49748,247.1,-9.3,25.0,10.5,-8.178979745769382,-14.227567062833812,0.10002111795121582
7.700000000000017,22.6748,2.69573,247.0,-9.3,24.2,10.5,-8.180507920330154,-14.49894128090969,0.10002173092216937
7.800000000000011,22.9378,2.93849,246.7,-10.0,22.9,10.5,-8.138374569230384,-14.775245079312334,0.10002230855175798
7.900000000000006,23.2457,3.18736,247.1,-10.2,21.7,10.5,-8.059604831248802,-15.103548621695133,0.10002297749366917
8.0,23.5249,3.34637,248.2,-10.3,12.3,10.5,-7.946267033568885,-15.407923710115721,0.10002356149936098
8.099999999999994,23.8199,3.30737,249.7,-10.4,-5.7,10.5,-7.817993641893806,-15.729712871424011,0.10002418871410468
8.200000000000017,24.0965,3.09571,250.9,-9.4,-20.9,10.5,-7.716060727195314,-16.027235736169725,0.100024804099768
8.300000000000011,24.378,2.79809,250.9,-8.2,-26.4,10.5,-7.6287922813640066,-16.326614400615064,0.10002545663579454
8.400000000000006,24.6325,2.58479,251.1,-7.8,-26.4,10.5,-7.602387640035495,-16.588642874274925,0.10002609970678877
8.5,24.8828,2.42809,251.8,-8.6,-27.0,10.5,-7.615641058913804,-16.840216480173723,0.10002677470173849
8.599999999999994,25.1198,2.37622,252.0,-9.0,-28.0,10.5,-7.6611623332497265,-17.07350543191435,0.10002744817825437
8.700000000000017,25.4042,2.40773,252.4,-10.4,-27.8,10.5,-7.695200061577792,-17.356598556263066,0.10002825253331427
8.800000000000011,25.6374,2.51675,252.4,-11.0,-28.0,10.6,-7.811984538386491,-17.575007371618263,2.899275824397307e-05
8.900000000000006,25.8702,2.70424,252.3,-11.0,-28.2,10.6,-7.9828954939585035,-17.78419062025607,2.9784809404187484e-05
9.0,26.0805,2.90749,252.7,-11.9,-28.1,10.6,-8.183500822316898,-17.96488629713678,3.054589114048767e-05
9.099999999999994,26.2898,3.13579,253.1,-12.8,-27.9,10.6,-8.433420002102016,-18.13487892505211,3.1352797265515875e-05
9.200000000000017,26.4901,3.4394,253.1,-14.2,-27.4,10.6,-8.712224817216859,-18.288450322703625,3.216663644289852e-05
9.300000000000011,26.7112,3.75129,253.9,-20.4,-23.8,10.6,-9.045370575128686,-18.4502716165768,3.309845003229839e-05
9.400000000000006,26.9393,4.01977,253.3,-27.5,-13.8,10.6,-9.386672077128377,-18.614198821279544,3.4069226733990376e-05
9.5,27.2068,4.14862,250.8,-29.9,-3.2,10.6,-9.755717216024742,-18.808925800926616,3.519546908581361e-05
9.599999999999994,27.4684,4.24565,248.2,-28.7,6.2,10.6,-10.123711654943602,-18.99401689833681,3.631857811825512e-05
9.700000000000017,27.8111,4.33248,246.8,-26.1,13.1,10.6,-10.46192436025454,-19.26615934321973,3.768292158845554e-05
9.800000000000011,28.1659,4.38283,246.0,-24.9,16.0,10.6,-10.761290592386645,-19.558152020029553,3.906996763625159e-05
9.900000000000006,28.5658,4.41341,245.2,-24.8,16.9,10.6,-11.050310671548319,-19.89764826188196,4.0615299276680616e-05
10.0,28.954,4.51102,245.4,-24.2,17.7,10.6,-11.31804883071897,-20.229289906108725,4.212925605795448e-05
10.099999999999994,29.4032,4.62663,245.3,-24.5,17.4,10.6,-11.53204978252637,-20.637707374438683,4.382147511439172e-05
10.200000000000017,29.8519,4.80128,245.6,-24.0,17.4,10.6,-11.69821053068268,-21.058422126597662,4.5498476334948634e-05
10.300000000000011,30.3441,5.00312,245.8,-23.4,16.2,10.5,-11.830868013357199,-21.533223087228837,0.1000473280429448
10.400000000000006,30.8621,5.21347,245.9,-23.4,15.2,10.5,-11.944761540106494,-22.039960069813123,0.10004927151343601
10.5,31.4269,5.44608,246.4,-24.2,13.8,10.5,-12.046801266482808,-22.598463926329796,0.10005141578058296
10.599999999999994,31.9802,5.62237,248.6,-24.8,4.2,10.5,-12.129980125323424,-23.14995515031883,0.10005355025206786
10.700000000000017,32.5706,5.66181,251.5,-22.0,-12.4,10.5,-12.223946303982329,-23.736998209915527,0.10005588568984436
10.800000000000011,33.1317,5.63455,252.0,-15.8,-25.1,10.5,-12.342482408963281,-24.287051885078803,0.10005818265655275
10.900000000000006,33.7337,5.56302,251.4,-12.6,-27.8,10.5,-12.516909613092086,-24.864659741378393,0.10006074846361557
11.0,34.2782,5.53779,252.0,-11.7,-26.2,10.5,-12.706020201107354,-25.378751347869244,0.10006314636883307
11.099999999999994,34.8413,5.48001,252.3,-10.7,-26.8,10.5,-12.936420308329598,-25.900884762739487,0.10006570790429414
11.200000000000017,35.3588,5.44192,252.6,-11.0,-28.7,10.6,-13.183431327250965,-26.37098827835696,6.813830758289896e-05
11.300000000000011,35.8548,5.55217,251.9,-9.9,-28.6,10.5,-13.413560466483922,-26.822918877959943,0.1000705040050649
11.400000000000006,36.3525,5.60339,252.3,-10.7,-28.1,10.5,-13.731257069668029,-27.25177518956405,0.10007299820060567
11.5,36.8874,5.70201,252.7,-11.3,-27.5,10.5,-14.11305255205491,-27.699823294661474,0.10007576397153084
11.599999999999994,37.3883,5.81999,252.5,-11.0,-28.3,10.5,-14.507775290650958,-28.10677716778143,0.10007843102545877
11.700000000000017,37.9305,5.90209,252.7,-11.1,-28.6,10.5,-14.973172808953196,-28.53347655215886,0.10008140382806818
11.800000000000011,38.4111,6.04771,252.5,-10.9,-28.8,10.5,-15.42979204558885,-28.89524297112101,0.10008412304972936
11.900000000000006,38.9072,6.20519,252.4,-13.1,-26.8,10.5,-15.943353553725723,-29.25188521607752,0.10008701507894013
12.0,39.3841,6.30452,251.6,-17.7,-15.9,10.5,-16.44871310409639,-29.58709442648286,0.10008984785143138
12.099999999999994,39.8818,6.25542,248.8,-20.0,2.1,10.5,-16.988433766460375,-29.928661521629586,0.10009286015565344
12.200000000000017,40.3942,6.10933,246.5,-19.4,17.7,10.5,-17.471163641658322,-30.30197519193561,0.1000959294396182
12.300000000000011,40.9567,5.97551,245.6,-17.8,22.1,10.5,-17.943813838499658,-30.729701998019205,0.10009929160616515
12.400000000000006,41.4927,5.84532,244.7,-17.0,22.1,10.5,-18.351500385189446,-31.151089996788855,0.1001024983013945
12.5,42.0497,5.71331,244.8,-15.4,23.5,10.6,-18.732566358233296,-31.603591282545807,0.00010583312594647509
12.599999999999994,42.5863,5.62442,246.1,-13.4,24.1,10.5,-19.072078529091964,-32.04921442916495,0.10010906480711235
12.700000000000017,43.142,5.56241,246.0,-14.1,22.8,10.5,-19.344053277900866,-32.54075111037697,0.10011237347286084
12.800000000000011,43.674,5.54988,246.3,-13.9,23.2,10.5,-19.56120740875511,-33.027972766996335,0.1001155394196811
12.900000000000006,44.2414,5.56544,246.4,-13.6,23.5,10.5,-19.747349199235863,-33.56519714097968,0.10011891732427891
13.0,44.7659,5.63599,246.4,-13.5,22.8,10.5,-19.871614144913863,-34.080132950471295,0.10012203356418858
13.099999999999994,45.3424,5.74178,247.3,-13.0,21.0,10.5,-19.974692633902638,-34.658890525197805,0.10012547203284505
13.200000000000017,45.8913,5.80571,248.3,-15.1,10.7,10.5,-20.04844217654302,-35.21888788945263,0.10012876880613852
13.300000000000011,46.4688,5.86076,250.3,-17.5,-5.1,10.5,-20.11892926882491,-35.81030740585713,0.10013228158748078
13.400000000000006,47.0395,5.84516,252.0,-15.5,-19.6,10.5,-20.20658755409716,-36.38767122647655,0.1001358225544795
13.5,47.6465,5.79994,251.4,-12.3,-26.0,10.5,-20.340328329407797,-36.98638045168302,0.10013969184336347
13.599999999999994,48.2203,5.75149,251.5,-11.0,-25.7,10.5,-20.50347189843072,-37.538668710395925,0.10014343770863121
13.700000000000017,48.8148,5.6283,252.3,-11.5,-25.0,10.5,-20.7047199552493,-38.09905991953174,0.10014741043997333
13.800000000000011,49.3214,5.61028,252.5,-11.4,-27.0,10.5,-20.88574865065239,-38.57300481220375,0.10015084998630464
13.900000000000006,49.8453,5.62994,252.3,-11.1,-28.5,10.6,-21.132525151177788,-39.04112743798966,0.00015451110312447724
14.0,50.3632,5.63106,252.5,-11.4,-27.8,10.6,-21.40357216468558,-39.493674052261824,0.00015820160383483994
14.099999999999994,50.9494,5.67011,252.7,-12.2,-27.7,10.6,-21.73016484320514,-39.9982207995201,0.0001624497923167212
14.200000000000017,51.4941,5.72797,252.8,-15.4,-26.3,10.6,-22.068827355100844,-40.45331084232916,0.00016648491172688296
14.300000000000011,52.108,5.77195,252.5,-20.1,-16.7,10.6,-22.4395564247228,-40.96987072874281,0.00017107797433624228
14.400000000000006,52.6536,5.76423,249.8,-20.8,0.4,10.6,-22.80354154959728,-41.41514367081207,0.0001752465522955049
14.5,53.2452,5.7314,247.3,-19.9,14.5,10.6,-23.17290390923129,-41.90717761230688,0.00017979267364864882
14.599999999999994,53.8041,5.70461,246.2,-18.5,19.2,10.6,-23.484973672252714,-42.38590016521228,0.00018409848453870836
14.700000000000017,54.4125,5.66691,245.5,-17.4,20.8,10.7,-23.798390092218455,-42.91719227728771,-0.09981118512325082
14.800000000000011,54.9631,5.67996,245.9,-15.9,21.4,10.7,-24.032173038008505,-43.41768363716854,-0.09980692175279238
14.900000000000006,55.5389,5.70034,245.9,-15.4,21.6,10.7,-24.243363825851212,-43.954148711260245,-0.09980244842544472
15.0,56.0822,5.75376,246.4,-14.4,22.6,10.7,-24.40059655022293,-44.47705418089279,-0.09979822464951127
15.099999999999994,56.6047,5.79576,246.6,-14.0,23.0,10.7,-24.533952937085083,-44.98689658986828,-0.09979413931157488
15.200000000000017,57.1394,5.84016,246.6,-14.0,22.6,10.7,-24.605713943991354,-45.533976418267194,-0.09978998441681242
15.300000000000011,57.698,5.97419,246.7,-13.8,22.3,10.7,-24.637756373399554,-46.12180676854145,-0.09978563945859698
15.400000000000006,58.2438,6.08964,247.8,-13.9,18.2,10.7,-24.64105061572858,-46.70638746260139,-0.09978137758561978
15.5,58.8562,6.10931,249.8,-16.0,1.4,10.6,-24.646807449721287,-47.36050935757337,0.00022346434316133923
15.599999999999994,59.4233,6.00171,251.9,-16.7,-17.4,10.6,-24.6522195534628,-47.965434848406275,0.00022800045298509986
15.700000000000017,60.0124,5.82319,251.3,-12.5,-25.2,10.6,-24.686359509827213,-48.58249175222842,0.00023279935105513516
15.800000000000011,60.566,5.67046,251.5,-11.4,-25.4,10.6,-24.75569734578469,-49.14803771213059,0.00023739739235573154
15.900000000000006,61.137,5.48767,252.5,-12.0,-26.1,10.6,-24.86265999520422,-49.71799801370679,0.0002422280614986505
16.0,61.6887,5.36543,252.2,-11.4,-27.5,10.6,-24.981449689351358,-50.26288632487175,0.00024695994965107104
16.099999999999994,62.2332,5.29144,252.2,-11.8,-27.6,10.6,-25.157007663241764,-50.779315902193844,0.00025173957955892945
16.200000000000017,62.7497,5.19029,252.6,-12.5,-27.4,10.6,-25.355309495510156,-51.2575609350888,0.00025634973057009347
16.30000000000001,63.2923,5.19486,252.8,-13.2,-28.0,10.6,-25.595595006053003,-51.74812840618261,0.0002612695323946923
16.400000000000006,63.7965,5.25027,252.8,-13.3,-27.8,10.6,-25.818420541606308,-52.204176858796274,0.00026588524960580173
16.5,64.3166,5.30782,252.7,-13.1,-27.0,10.6,-26.136319701379897,-52.64196592377071,0.0002707786944959878
16.599999999999994,64.8039,5.38278,253.1,-13.9,-26.8,10.6,-26.470391904663423,-53.038263616952975,0.00027544147405755837
16.700000000000017,65.3087,5.46233,253.2,-14.0,-27.5,10.5,-26.85327688255726,-53.43434311397459,0.10028035047685613
16.80000000000001,65.7616,5.62361,253.0,-14.4,-27.6,10.6,-27.250073350843035,-53.76870648509904,0.00028484768674985617
16.900000000000006,66.2561,5.74946,253.9,-20.6,-23.5,10.6,-27.68039236645094,-54.13368953083055,0.00028979229073833324
17.0,66.7347,5.84442,252.1,-24.5,-11.6,10.6,-28.100723711106813,-54.48433420540215,0.00029461924000173667
17.099999999999994,67.2519,5.75619,248.3,-21.9,6.2,10.6,-28.53123329371902,-54.87139569564052,0.0002998526453428241
17.200000000000017,67.6949,5.58825,247.1,-17.2,18.3,10.6,-28.854712559670567,-55.22009628509619,0.0003043203413799489
17.30000000000001,68.2207,5.47291,245.8,-15.5,20.3,10.6,-29.19641432151419,-55.65036715358619,0.0003096156452340182
